 0.00000000e+00  0.00000000e+00 
 1.00000000e-07  5.69148129e-09 
 1.02205801e-07  5.80543924e-09 
 1.06617403e-07  5.99462857e-09 
 1.12189673e-07  6.31002428e-09 
 1.18369507e-07  6.66036326e-09 
 1.30729175e-07  7.35665806e-09 
 1.55448510e-07  8.75669048e-09 
 2.04887180e-07  1.15855174e-08 
 3.03764520e-07  1.74937932e-08 
 3.98365387e-07  2.40522845e-08 
 5.04892547e-07  4.83998726e-08 
 5.80387384e-07  7.74552759e-08 
 6.40597919e-07  9.35974533e-08 
 6.87260273e-07  9.73991194e-08 
 7.32254788e-07  8.86850391e-08 
 8.22243817e-07 -1.64164793e-09 
 9.09781477e-07 -3.69238057e-08 
 9.71325595e-07 -3.49441028e-08 
 1.02883247e-06 -4.33058818e-08 
 1.10633460e-06 -4.40604323e-08 
 1.17738665e-06 -5.38416695e-08 
 1.26336010e-06 -5.65733349e-08 
 1.35649930e-06 -7.00584172e-08 
 1.46193009e-06 -7.62177303e-08 
 1.58337576e-06 -9.65359832e-08 
 1.72290185e-06 -1.08922759e-07 
 1.88355966e-06 -1.43421792e-07 
 2.07273336e-06 -1.68215014e-07 
 2.29003997e-06 -2.34073010e-07 
 2.55858992e-06 -2.89033416e-07 
 2.87933072e-06 -4.41952846e-07 
 3.29347203e-06 -5.92678415e-07 
 3.82135610e-06 -1.07123486e-06 
 4.55142303e-06 -1.68733965e-06 
 5.58074263e-06 -5.84278972e-06 
 7.09047595e-06 -1.73443355e-07 
 9.06741029e-06  7.93367070e-08 
 9.92071143e-06 -8.99555241e-07 
 1.03573296e-05 -8.90764981e-07 
 1.07854495e-05 -1.41825051e-06 
 1.11843967e-05 -1.70709790e-06 
 1.19822910e-05 -3.31276735e-06 
 1.27619301e-05 -5.22529182e-06 
 1.40334033e-05 -1.49051328e-05 
 1.53051075e-05 -6.17411985e-07 
 1.69346917e-05  6.49565501e-05 
 1.76989890e-05  2.84538343e-05 
 1.84408904e-05 -3.36185650e-07 
 1.89338156e-05 -1.14006179e-06 
 1.92579956e-05 -1.67904439e-06 
 1.95713775e-05 -2.16379062e-06 
 2.01981413e-05 -3.71103465e-06 
 2.14516688e-05 -8.66888505e-06 
 2.39587240e-05 -1.60907615e-04 
 2.83158698e-05 -8.85933786e-06 
 2.89410981e-05 -6.47757303e-06 
 3.00173013e-05 -4.72893797e-06 
 3.10809341e-05 -5.49195116e-06 
 3.11672140e-05 -5.50309773e-06 
 3.13397738e-05 -5.51784351e-06 
 3.16848935e-05 -5.52764316e-06 
 3.20085677e-05 -5.54426475e-06 
 3.22393765e-05 -5.47940096e-06 
 3.24534338e-05 -4.74571561e-06 
 3.26113559e-05 -4.92004045e-06 
 3.27157731e-05 -4.30633898e-06 
 3.28289125e-05 -2.93091237e-06 
 3.29058235e-05 -4.69365363e-08 
 3.29568241e-05  4.28745295e-09 
 3.30029192e-05 -1.51845051e-07 
 3.30501169e-05 -1.89597229e-07 
 3.30991265e-05 -4.00971571e-07 
 3.31473758e-05 -4.67699257e-07 
 3.32018316e-05 -6.98490882e-07 
 3.32605828e-05 -8.02746642e-07 
 3.33284200e-05 -1.06890537e-06 
 3.34080859e-05 -1.22876964e-06 
 3.35031938e-05 -1.57333633e-06 
 3.36200366e-05 -1.81913510e-06 
 3.37649634e-05 -2.32397782e-06 
 3.39465302e-05 -2.73257631e-06 
 3.41781627e-05 -3.60356893e-06 
 3.44699332e-05 -4.42156970e-06 
 3.48484383e-05 -6.32212019e-06 
 3.53218501e-05 -8.38318311e-06 
 3.59403479e-05 -1.37612874e-05 
 3.66814677e-05 -2.03460120e-05 
 3.75859223e-05 -4.76234191e-05 
 3.77049369e-05 -5.04950145e-05 
 3.79429661e-05 -4.64604813e-05 
 3.81274435e-05 -7.38853069e-05 
 3.83067959e-05 -9.40223762e-05 
 3.85951743e-05 -9.51733622e-05 
 3.89041940e-05 -1.21471216e-04 
 3.91201189e-05 -8.34038520e-05 
 3.93212417e-05 -7.89706419e-05 
 3.95921991e-05 -8.29997137e-05 
 4.00847353e-05 -1.01195788e-04 
 4.10180716e-05 -1.24601773e-04 
 4.19635753e-05 -1.28099902e-04 
 4.29406690e-05 -1.27522446e-04 
 4.36097876e-05 -5.61152962e-06 
 4.41019564e-05 -2.52384248e-06 
 4.45580803e-05 -3.70789091e-06 
 4.49813550e-05 -4.20030268e-06 
 4.55966416e-05 -7.66554786e-06 
 4.65229046e-05 -1.23687704e-05 
 4.83754304e-05 -5.97575136e-05 
 5.19517490e-05  1.48453546e-07 
 5.38510245e-05 -5.27191983e-05 
 5.43020598e-05 -8.71634581e-05 
 5.48567764e-05 -3.49161635e-06 
 5.50813016e-05 -3.04486336e-06 
 5.52963424e-05 -4.46282547e-06 
 5.55312905e-05 -4.21164110e-06 
 5.60011866e-05 -7.19513897e-06 
 5.66794767e-05 -9.71930550e-06 
 5.79845031e-05 -2.68545716e-05 
 5.99555178e-05  1.07142628e-07 
 6.08757828e-05 -6.99319694e-05 
 6.14065450e-05 -1.03300678e-04 
 6.20330221e-05 -6.39028660e-06 
 6.21693298e-05 -5.80601239e-06 
 6.23185602e-05 -7.19372651e-06 
 6.24760269e-05 -6.88783493e-06 
 6.27123599e-05 -8.94589445e-06 
 6.29628929e-05 -9.44092898e-06 
 6.33147376e-05 -1.31592332e-05 
 6.38305982e-05 -1.70021304e-05 
 6.46196958e-05 -3.07181946e-05 
 6.59601139e-05 -6.69120866e-05 
 6.79510872e-05 -5.94912574e-04 
 6.88358868e-05 -1.52445957e-05 
 6.92060916e-05 -1.10969820e-05 
 6.95653887e-05 -1.45984979e-05 
 6.99465197e-05 -1.36737933e-05 
 7.06578350e-05 -2.44104095e-05 
 7.13206691e-05 -3.04343970e-05 
 7.22826171e-05 -6.43089304e-05 
 7.34812491e-05 -1.26421181e-04 
 7.46767112e-05 -1.03053271e-03 
 7.53105221e-05 -8.29224452e-04 
 7.58817613e-05 -2.42532154e-05 
 7.61486793e-05 -1.58037853e-05 
 7.63978872e-05 -1.85903871e-05 
 7.66698891e-05 -1.40391528e-05 
 7.72138931e-05 -2.14156681e-05 
 7.77568267e-05 -2.19399008e-05 
 7.86344515e-05 -4.41987713e-05 
 7.99515066e-05 -8.43526178e-05 
 8.09221940e-05 -1.48819028e-03 
 8.13722939e-05 -1.46089941e-03 
 8.18385930e-05 -4.27477662e-05 
 8.20540082e-05 -2.53715690e-05 
 8.22619549e-05 -2.95598908e-05 
 8.24997474e-05 -1.80903312e-05 
 8.29604396e-05 -2.64775573e-05 
 8.34310489e-05 -1.96460338e-05 
 8.42549688e-05 -4.26502180e-05 
 8.51335098e-05 -5.07737418e-05 
 8.65572108e-05 -2.00760091e-04 
 8.79613665e-05  1.45816532e-05 
 8.89633906e-05 -1.10487706e-03 
 8.93598654e-05 -8.64727664e-04 
 8.96463709e-05 -7.43230788e-04 
 8.98670578e-05 -3.03615359e-05 
 9.00057398e-05 -1.61414104e-05 
 9.01315598e-05 -2.44904146e-05 
 9.02653391e-05 -1.32454307e-05 
 9.04744266e-05 -2.18753783e-05 
 9.07232501e-05 -1.21465866e-05 
 9.10779026e-05 -2.38999566e-05 
 9.16231631e-05 -1.83050079e-05 
 9.24980700e-05 -4.79684992e-05 
 9.40330029e-05 -8.36591965e-05 
 9.71028688e-05 -3.93200714e-04 
 9.94542529e-05  9.51300357e-06 
 1.00957508e-04 -3.43875868e-05 
 1.02338410e-04 -6.46805947e-05 
 1.04016681e-04 -1.29537292e-03 
 1.05561895e-04  7.00501778e-07 
 1.06528691e-04 -5.52575927e-05 
 1.07041019e-04 -1.98624408e-04 
 1.07397397e-04 -8.58194385e-06 
 1.07577137e-04 -5.58584052e-06 
 1.07751572e-04 -9.85945540e-06 
 1.07930356e-04 -7.99092700e-06 
 1.08287924e-04 -1.45568355e-05 
 1.08768853e-04 -1.61335808e-05 
 1.09632951e-04 -3.71049658e-05 
 1.11293600e-04 -8.68659425e-05 
 1.14614900e-04 -4.35530054e-04 
 1.16117662e-04 -1.18899706e-06 
 1.16761686e-04 -1.14740432e-05 
 1.17321836e-04 -1.75718727e-05 
 1.17873913e-04 -2.94540829e-05 
 1.18978066e-04 -5.80214752e-05 
 1.21186372e-04 -6.78381775e-04 
 1.25451964e-04 -1.05880802e-05 
 1.28961835e-04  2.11784013e-04 
 1.32215039e-04 -1.79101335e-05 
 1.34778291e-04  9.23882471e-06 
 1.37085230e-04 -6.37338857e-04 
 1.39453228e-04 -1.97530421e-05 
 1.40889324e-04 -2.57827989e-05 
 1.42202517e-04 -4.32819797e-04 
 1.42916656e-04 -1.70011269e-05 
 1.43255835e-04 -1.29234131e-05 
 1.43603013e-04 -1.82072327e-05 
 1.43951397e-04 -1.82889105e-05 
 1.44648165e-04 -3.33486970e-05 
 1.45291317e-04 -4.42393592e-05 
 1.46350935e-04 -9.71834846e-05 
 1.47754608e-04 -2.04081995e-04 
 1.48876853e-04 -1.51943503e-03 
 1.49444237e-04 -1.40329184e-03 
 1.49986961e-04 -5.16410744e-05 
 1.50213466e-04 -3.87503385e-05 
 1.50450920e-04 -4.12815648e-05 
 1.50702804e-04 -3.11468698e-05 
 1.51206572e-04 -4.14803030e-05 
 1.51714374e-04 -4.03630649e-05 
 1.52520950e-04 -7.46534138e-05 
 1.53526073e-04 -1.10955542e-04 
 1.54609943e-04 -3.27747183e-04 
 1.56179245e-04  5.39472591e-06 
 1.56864861e-04 -2.79785203e-04 
 1.57410313e-04 -1.66568722e-05 
 1.57777268e-04 -1.16669549e-05 
 1.58112966e-04 -1.75597887e-05 
 1.58522140e-04 -2.06676765e-05 
 1.59108121e-04 -3.60914282e-05 
 1.60075702e-04 -5.96345832e-05 
 1.61789391e-04 -2.47561894e-04 
 1.63833244e-04 -2.97999810e-06 
 1.65457732e-04  2.08639095e-04 
 1.66340365e-04 -3.08282303e-04 
 1.67005949e-04 -1.35301476e-05 
 1.67665209e-04 -1.58213662e-05 
 1.68116171e-04 -2.49879272e-05 
 1.68537777e-04 -2.95233842e-05 
 1.69380989e-04 -5.82664836e-05 
 1.71067412e-04 -1.57640456e-04 
 1.74440257e-04 -1.88427608e-03 
 1.77380119e-04 -2.10888364e-05 
 1.80098528e-04 -1.08561894e-05 
 1.80175382e-04 -8.32996215e-05 
 1.80329090e-04 -6.87026489e-05 
 1.80421297e-04 -5.99541375e-05 
 1.80508946e-04 -5.65988331e-05 
 1.80629105e-04 -5.46698055e-05 
 1.80869423e-04 -5.59680466e-05 
 1.81259892e-04 -6.50136919e-05 
 1.82040830e-04 -8.45092089e-05 
 1.82769904e-04 -9.01157761e-05 
 1.83516782e-04 -9.16475552e-05 
 1.84141593e-04 -1.04732701e-04 
 1.84635498e-04 -2.97321834e-05 
 1.84927269e-04 -1.83573629e-05 
 1.85210345e-04 -1.64420343e-05 
 1.85486165e-04 -1.86340167e-05 
 1.85789595e-04 -2.43527942e-05 
 1.86396453e-04 -3.57882616e-05 
 1.87273798e-04 -6.89462986e-05 
 1.88905689e-04 -1.81620182e-04 
 1.89819840e-04 -1.10730182e-03 
 1.90332864e-04 -1.27013768e-03 
 1.90895104e-04 -4.12031892e-05 
 1.91017146e-04 -3.12729519e-05 
 1.91165780e-04 -3.54123692e-05 
 1.91331742e-04 -2.78517967e-05 
 1.91579083e-04 -3.43183024e-05 
 1.91848576e-04 -2.99743764e-05 
 1.92204333e-04 -4.20580460e-05 
 1.92611947e-04 -4.39282343e-05 
 1.93094696e-04 -6.74159924e-05 
 1.93668998e-04 -8.26112693e-05 
 1.94412073e-04 -1.46049978e-04 
 1.95427010e-04 -2.88401786e-04 
 1.96107264e-04 -1.93194632e-03 
 1.96562526e-04 -6.84345304e-05 
 1.96804035e-04 -4.13231945e-05 
 1.97089479e-04 -5.02153307e-05 
 1.97383659e-04 -3.33926752e-05 
 1.97899748e-04 -5.51376601e-05 
 1.98376829e-04 -4.76651480e-05 
 1.99087000e-04 -9.65707338e-05 
 1.99827457e-04 -1.10263249e-04 
 2.00711832e-04 -2.64846355e-04 
 2.01633528e-04 -2.25991674e-04 
 2.02398632e-04 -3.34913594e-03 
 2.02752655e-04 -2.76675327e-03 
 2.03170772e-04 -2.08747196e-03 
 2.03586359e-04 -6.86708120e-05 
 2.03848179e-04 -3.92639205e-05 
 2.04089359e-04 -5.03905341e-05 
 2.04325390e-04 -3.17798564e-05 
 2.04797454e-04 -5.24464645e-05 
 2.05519464e-04 -4.85064708e-05 
 2.06718582e-04 -1.33443053e-04 
 2.09116817e-04  2.90126596e-05 
 2.10466594e-04 -4.72770251e-04 
 2.11175401e-04  4.73594651e-04 
 2.11825622e-04 -2.10144578e-06 
 2.12152549e-04 -7.50222916e-06 
 2.12430407e-04 -1.66539792e-05 
 2.12710133e-04 -1.86632206e-05 
 2.13269583e-04 -3.67493120e-05 
 2.14342243e-04 -7.02911670e-05 
 2.16242514e-04 -3.15715992e-04 
 2.20043055e-04  3.10301719e-06 
 2.23523916e-04 -1.72085849e-04 
 2.25720901e-04 -3.40069561e-05 
 2.27275857e-04 -4.19194729e-05 
 2.28731203e-04 -1.48718947e-04 
 2.30345610e-04 -2.50856677e-04 
 2.33219366e-04 -2.53778095e-03 
 2.35560670e-04 -3.39784621e-05 
 2.37771184e-04 -1.30378165e-04 
 2.39624860e-04 -2.71026278e-03 
 2.40458186e-04 -7.19096613e-05 
 2.40874217e-04 -4.11797466e-05 
 2.41279046e-04 -5.14276090e-05 
 2.41654263e-04 -4.33061535e-05 
 2.42404695e-04 -7.88024745e-05 
 2.43224102e-04 -1.01344983e-04 
 2.44561303e-04 -2.89024850e-04 
 2.45621371e-04 -1.54823220e-04 
 2.46453469e-04 -2.93889482e-03 
 2.46930205e-04 -2.74393435e-03 
 2.47372088e-04 -8.64858665e-05 
 2.47568084e-04 -5.42389334e-05 
 2.47759546e-04 -6.65744880e-05 
 2.47975869e-04 -4.37222411e-05 
 2.48329153e-04 -6.31202568e-05 
 2.48716791e-04 -4.85185976e-05 
 2.49337592e-04 -9.05408808e-05 
 2.50285500e-04 -1.13146198e-04 
 2.51976528e-04 -5.14044972e-04 
 2.54975105e-04  2.65788543e-05 
 2.59182744e-04 -1.03712300e-04 
 2.61066959e-04 -3.18628836e-05 
 2.62056803e-04 -3.54407688e-05 
 2.63027020e-04 -6.01428719e-05 
 2.63900910e-04 -1.28101115e-04 
 2.65308303e-04 -3.33254323e-04 
 2.65417219e-04 -3.99447423e-04 
 2.65635053e-04 -3.62330732e-04 
 2.65941341e-04 -6.45313273e-04 
 2.66294560e-04 -8.03290016e-04 
 2.66353214e-04 -6.25661137e-04 
 2.66470522e-04 -5.94953001e-04 
 2.66618566e-04 -5.30182556e-04 
 2.66635733e-04 -5.19274038e-04 
 2.66670069e-04 -4.98837217e-04 
 2.66738740e-04 -4.71768098e-04 
 2.66827900e-04 -4.53812476e-04 
 2.67006222e-04 -4.47780032e-04 
 2.67362865e-04 -4.93974384e-04 
 2.68076151e-04 -6.45782164e-04 
 2.68637038e-04 -7.03785903e-04 
 2.68994096e-04 -7.16576715e-04 
 2.69441342e-04 -7.23327268e-04 
 2.69928756e-04 -7.26785394e-04 
 2.70274289e-04 -6.95722629e-04 
 2.70565772e-04 -8.19411162e-04 
 2.70805978e-04 -4.79434107e-05 
 2.70981158e-04 -2.61195302e-05 
 2.71143640e-04 -3.40174475e-05 
 2.71349704e-04 -2.09088446e-05 
 2.71710134e-04 -3.72838176e-05 
 2.72204083e-04 -3.37110558e-05 
 2.73096617e-04 -8.62764069e-05 
 2.74716051e-04 -1.77148589e-04 
 2.77407149e-04 -9.63747316e-04 
 2.78754407e-04  4.89113841e-06 
 2.79149010e-04 -1.54522743e-05 
 2.79481670e-04 -1.82006633e-05 
 2.79809106e-04 -3.52569573e-05 
 2.80463979e-04 -5.18510408e-05 
 2.81654708e-04 -1.36531259e-04 
 2.83663512e-04 -5.15186422e-04 
 2.87681120e-04 -4.05120238e-03 
 2.90478551e-04 -4.68438661e-05 
 2.91520236e-04 -4.76874210e-05 
 2.92637623e-04 -9.89954797e-05 
 2.93668408e-04 -1.92639921e-04 
 2.95729977e-04 -1.12678940e-04 
 2.95800608e-04 -5.16238215e-04 
 2.95941872e-04 -4.59523489e-04 
 2.95958525e-04 -4.52873061e-04 
 2.95991831e-04 -4.41591844e-04 
 2.96058443e-04 -4.28540420e-04 
 2.96191666e-04 -4.21495606e-04 
 2.96458114e-04 -4.44085096e-04 
 2.96991008e-04 -5.49866869e-04 
 2.97926130e-04 -6.69723409e-04 
 2.98294884e-04 -6.80796974e-04 
 2.98748112e-04 -6.86580497e-04 
 2.99226166e-04 -6.89584148e-04 
 2.99569731e-04 -6.53124896e-04 
 2.99849111e-04 -7.58828012e-04 
 3.00081034e-04 -5.00546276e-05 
 3.00250359e-04 -2.81347020e-05 
 3.00407517e-04 -3.53996623e-05 
 3.00608143e-04 -2.26538516e-05 
 3.00946456e-04 -3.83742595e-05 
 3.01409076e-04 -3.52393082e-05 
 3.02221460e-04 -8.35064393e-05 
 3.03676259e-04 -1.57315538e-04 
 3.06128451e-04 -9.93267153e-04 
 3.07260213e-04 -1.78224143e-07 
 3.07714643e-04 -2.07338653e-05 
 3.08110939e-04 -2.71843321e-05 
 3.08502007e-04 -4.63430053e-05 
 3.09284144e-04 -7.52244526e-05 
 3.10848419e-04 -2.32395331e-04 
 3.13307804e-04  1.28678412e-05 
 3.18226576e-04  2.85663989e-04 
 3.23139493e-04 -5.84338754e-05 
 3.23350514e-04 -5.35389841e-05 
 3.23772558e-04 -4.87254880e-05 
 3.24178934e-04 -5.43918437e-05 
 3.24715448e-04 -7.01189413e-05 
 3.25421555e-04 -1.05324074e-04 
 3.26401694e-04 -1.87658048e-04 
 3.27808273e-04 -6.81603003e-04 
 3.29142092e-04 -5.10878254e-04 
 3.29876729e-04  1.05242384e-04 
 3.30633682e-04  1.36186648e-04 
 3.31228451e-04  1.45734435e-04 
 3.31805018e-04  1.47852549e-04 
 3.32412336e-04  1.48361597e-04 
 3.32858025e-04 -5.71908055e-05 
 3.33172292e-04 -9.59573424e-05 
 3.33463101e-04 -9.12898412e-05 
 3.33702239e-04 -8.63408579e-05 
 3.33934242e-04 -9.90425081e-05 
 3.34249305e-04 -1.09652982e-04 
 3.34767062e-04 -1.52468515e-04 
 3.35568078e-04 -2.21863832e-04 
 3.37048537e-04 -6.99360751e-04 
 3.39809243e-04 -1.99496611e-05 
 3.43666920e-04  6.66782293e-04 
 3.45344261e-04 -5.47704192e-05 
 3.46016664e-04 -3.39699203e-05 
 3.46637126e-04 -5.70119683e-05 
 3.47310939e-04 -8.51898275e-05 
 3.48658563e-04 -2.13715377e-04 
 3.50783529e-04  1.11917426e-05 
 3.51314771e-04  6.66733601e-06 
 3.51849637e-04  2.92887782e-06 
 3.52547930e-04  1.77576614e-06 
 3.53181353e-04  1.15665269e-06 
 3.53662689e-04  4.54639800e-07 
 3.54149636e-04  1.22202688e-07 
 3.54701809e-04 -5.81084514e-07 
 3.55092603e-04  1.95547257e-05 
 3.55420765e-04 -8.36419962e-05 
 3.55597674e-04 -6.50994715e-05 
 3.55759766e-04 -5.38636723e-05 
 3.55924168e-04 -4.57126650e-05 
 3.56101969e-04 -4.23436358e-05 
 3.56405996e-04 -5.06022750e-05 
 3.56779424e-04 -6.41164566e-05 
 3.57301069e-04 -8.89803320e-05 
 3.58179562e-04 -1.63656293e-04 
 3.59555195e-04 -3.60964774e-04 
 3.60386113e-04 -1.29112291e-03 
 3.60814965e-04 -1.68689834e-03 
 3.60874924e-04 -1.70195682e-03 
 3.60994841e-04 -1.73517675e-03 
 3.61234676e-04 -1.81511770e-03 
 3.61461536e-04 -7.52550061e-05 
 3.61622703e-04 -4.30273627e-05 
 3.61770748e-04 -6.41366709e-05 
 3.61934064e-04 -3.83242296e-05 
 3.62238706e-04 -6.49282350e-05 
 3.62633057e-04 -4.67500354e-05 
 3.63319137e-04 -1.06588930e-04 
 3.64553741e-04 -1.60294282e-04 
 3.67022951e-04 -5.08502004e-03 
 3.69918728e-04  1.26797728e-05 
 3.72260824e-04 -4.39621847e-04 
 3.73388186e-04 -4.60830901e-05 
 3.73734814e-04 -3.55453754e-05 
 3.74122325e-04 -3.46656961e-05 
 3.74549246e-04 -5.89719541e-05 
 3.74986518e-04 -7.64287061e-05 
 3.75861064e-04 -1.48012235e-04 
 3.77610155e-04 -4.90510172e-04 
 3.79651206e-04 -8.17557002e-05 
 3.82460965e-04  4.23908507e-03 
 3.84760673e-04  2.21411055e-06 
 3.86991673e-04 -3.60665723e-04 
 3.89003462e-04 -1.63187837e-03 
 3.89903005e-04 -5.22563716e-05 
 3.90521216e-04 -4.77427441e-05 
 3.91165169e-04 -7.92602581e-05 
 3.91808326e-04 -1.03361217e-04 
 3.92512821e-04 -1.84841808e-04 
 3.93365338e-04 -2.73960573e-04 
 3.94261225e-04 -6.44601967e-04 
 3.95156900e-04 -1.27536409e-05 
 3.95613791e-04  4.26021837e-04 
 3.95924790e-04  3.76851537e-04 
 3.96245772e-04  7.29075033e-05 
 3.96653881e-04 -2.22822665e-05 
 3.96946624e-04 -3.00556105e-05 
 3.97211060e-04 -4.28270136e-05 
 3.97497872e-04 -5.07305095e-05 
 3.98071496e-04 -8.51628330e-05 
 3.99059172e-04 -1.57706375e-04 
 4.00573966e-04 -4.67100325e-04 
 4.03603554e-04 -6.71055344e-06 
 4.07395810e-04  4.51531685e-04 
 4.10849439e-04 -8.28521945e-05 
 4.11061602e-04 -7.44618112e-05 
 4.11485929e-04 -7.48592521e-05 
 4.11785503e-04 -8.64532460e-05 
 4.12151056e-04 -1.03860332e-04 
 4.12528622e-04 -1.30648955e-04 
 4.12976693e-04 -1.71246563e-04 
 4.13596349e-04 -2.49588536e-04 
 4.14410982e-04 -4.11894816e-04 
 4.15634224e-04 -9.15897124e-04 
 4.15738773e-04 -1.20740531e-03 
 4.15947870e-04 -1.61222345e-03 
 4.16180502e-04 -1.68181261e-03 
 4.16468638e-04 -1.58948071e-03 
 4.16736772e-04 -9.72359833e-04 
 4.16905347e-04 -9.23272171e-04 
 4.17094124e-04 -9.53699098e-04 
 4.17288690e-04 -1.01659478e-03 
 4.17677822e-04 -1.19758144e-03 
 4.18456085e-04 -1.45712731e-03 
 4.19269212e-04 -1.51585053e-03 
 4.20179505e-04 -1.50253136e-03 
 4.20796176e-04 -1.07652456e-04 
 4.21238157e-04 -5.48592009e-05 
 4.21646889e-04 -6.93439725e-05 
 4.22033375e-04 -8.18754168e-05 
 4.22585587e-04 -1.33683245e-04 
 4.23514437e-04 -2.22894631e-04 
 4.25273638e-04 -8.44893852e-04 
 4.26617130e-04 -1.73097067e-05 
 4.27580816e-04  1.48124385e-03 
 4.28137164e-04  6.17985835e-04 
 4.28691334e-04 -1.70558273e-05 
 4.28811418e-04 -2.37999213e-05 
 4.28954877e-04 -3.44884194e-05 
 4.29116828e-04 -3.99158865e-05 
 4.29360436e-04 -5.67485477e-05 
 4.29622107e-04 -6.74669864e-05 
 4.29969714e-04 -9.57071836e-05 
 4.30383689e-04 -1.23102883e-04 
 4.30954508e-04 -1.94304037e-04 
 4.31776554e-04 -3.09208428e-04 
 4.33048850e-04 -8.36716897e-04 
 4.35027213e-04 -2.64500128e-05 
 4.36623662e-04  2.28401184e-03 
 4.37397814e-04  6.16118702e-04 
 4.38241226e-04 -1.87511708e-05 
 4.38798414e-04 -5.24119613e-05 
 4.39329989e-04 -8.31747575e-05 
 4.39884615e-04 -1.25163091e-04 
 4.40925696e-04 -2.59733751e-04 
 4.42462723e-04 -7.23048189e-04 
 4.44670732e-04 -7.10987313e-03 
 4.45594949e-04 -1.61189869e-04 
 4.46144458e-04 -8.29318789e-05 
 4.46624920e-04 -1.25150918e-04 
 4.47098958e-04 -1.18660240e-04 
 4.47826016e-04 -2.29441107e-04 
 4.48972106e-04 -3.75917954e-04 
 4.50094197e-04 -1.01899209e-03 
 4.52338379e-04  5.05341307e-05 
 4.53624372e-04 -3.84742151e-03 
 4.54427733e-04 -4.57530796e-03 
 4.54955218e-04 -1.37227828e-04 
 4.55243777e-04 -8.09851580e-05 
 4.55527954e-04 -1.08213918e-04 
 4.55794617e-04 -7.85938892e-05 
 4.56327944e-04 -1.38775247e-04 
 4.57015424e-04 -1.56312048e-04 
 4.57891692e-04 -3.29906915e-04 
 4.59644229e-04 -1.04483426e-03 
 4.60758180e-04 -1.31770724e-02 
 4.61338153e-04 -3.69231530e-04 
 4.61694635e-04 -1.84822645e-04 
 4.62043552e-04 -2.30298019e-04 
 4.62416415e-04 -1.38700814e-04 
 4.63162139e-04 -2.74077993e-04 
 4.64478770e-04 -3.50013172e-04 
 4.65252876e-04 -1.27442718e-02 
 4.65657685e-04 -1.01697949e-02 
 4.66141289e-04 -2.90296303e-04 
 4.66270249e-04 -1.98572061e-04 
 4.66396722e-04 -2.33993101e-04 
 4.66533255e-04 -1.63972630e-04 
 4.66714827e-04 -2.02863976e-04 
 4.66905210e-04 -1.46787885e-04 
 4.67127687e-04 -1.97295272e-04 
 4.67396150e-04 -1.56750606e-04 
 4.67690520e-04 -2.26295055e-04 
 4.68055065e-04 -2.06811147e-04 
 4.68464744e-04 -3.16649949e-04 
 4.68968271e-04 -3.36552986e-04 
 4.69546367e-04 -5.61474620e-04 
 4.70251897e-04 -7.36585725e-04 
 4.71068419e-04 -1.88066374e-03 
 4.71488737e-04 -9.46688260e-05 
 4.71829132e-04  2.12314981e-03 
 4.72027936e-04  2.26790722e-03 
 4.72162135e-04  2.22906935e-03 
 4.72300337e-04  1.63092641e-03 
 4.72423582e-04  1.29454604e-05 
 4.72502336e-04 -1.31622356e-05 
 4.72573781e-04  7.57897293e-06 
 4.72666041e-04 -2.04375248e-05 
 4.72775910e-04 -9.14486633e-06 
 4.72911814e-04 -3.64047433e-05 
 4.73091074e-04 -3.14057752e-05 
 4.73340873e-04 -6.18137316e-05 
 4.73707620e-04 -7.42004703e-05 
 4.74300316e-04 -1.31628249e-04 
 4.75366093e-04 -2.89480001e-04 
 4.77416857e-04 -9.73604113e-04 
 4.81518387e-04 -1.60488200e-03 
 4.86403088e-04  2.83988976e-05 
 4.90873889e-04 -1.24669517e-03 
 4.94153438e-04 -2.78572681e-05 
 4.95529374e-04 -1.50231062e-04 
 4.96914335e-04 -3.89255225e-04 
 4.98324988e-04 -1.85235522e-03 
 5.01003154e-04 -7.63910827e-05 
 5.02827754e-04  4.35059717e-04 
 5.04029154e-04 -1.75395824e-04 
 5.04436130e-04 -9.56968331e-05 
 5.04895124e-04 -1.30716465e-04 
 5.05363016e-04 -1.32698010e-04 
 5.06053809e-04 -2.46982096e-04 
 5.07044530e-04 -3.78237627e-04 
 5.08348223e-04 -1.18236552e-03 
 5.10043026e-04  3.41367211e-05 
 5.11543681e-04 -1.30831949e-03 
 5.12513575e-04 -2.39547540e-03 
 5.13109896e-04 -8.60266701e-05 
 5.13428216e-04 -6.29781240e-05 
 5.13723993e-04 -8.79937182e-05 
 5.14044282e-04 -7.79965019e-05 
 5.14662065e-04 -1.43565507e-04 
 5.15625758e-04 -2.24423856e-04 
 5.17208700e-04 -6.94854102e-04 
 5.19930756e-04  1.25699763e-04 
 5.21048664e-04 -4.34933012e-03 
 5.22166156e-04 -1.34091736e-04 
 5.22567306e-04 -5.89207952e-05 
 5.22942314e-04 -7.46369708e-05 
 5.23382703e-04 -8.62598686e-05 
 5.24257647e-04 -1.77572584e-04 
 5.25418189e-04 -3.36022256e-04 
 5.27739272e-04 -6.67471814e-03 
 5.30971411e-04 -4.91758194e-05 
 5.33522271e-04  7.94378281e-04 
 5.35540369e-04 -1.16022834e-04 
 5.35619306e-04 -1.01418750e-04 
 5.35777178e-04 -8.31744530e-05 
 5.36092923e-04 -6.24818126e-05 
 5.36315271e-04 -6.60392865e-05 
 5.36459908e-04 -7.69366632e-05 
 5.36605292e-04 -8.63098838e-05 
 5.36799395e-04 -1.01514007e-04 
 5.37059748e-04 -1.24015792e-04 
 5.37563990e-04 -1.79175571e-04 
 5.38572475e-04 -3.46481216e-04 
 5.40131582e-04 -1.15604217e-03 
 5.41747305e-04 -6.95106368e-04 
 5.42890358e-04  1.27135669e-03 
 5.43937929e-04  1.42988685e-03 
 5.44641345e-04  1.44314504e-03 
 5.45299828e-04  1.18135420e-03 
 5.45756339e-04 -9.56997903e-05 
 5.46036260e-04 -6.74776006e-05 
 5.46284352e-04 -5.14961223e-05 
 5.46526563e-04 -6.80478834e-05 
 5.46812817e-04 -7.97122420e-05 
 5.47385327e-04 -1.30653375e-04 
 5.48220216e-04 -2.34383574e-04 
 5.49729228e-04 -5.83864650e-04 
 5.50616373e-04 -1.42498105e-03 
 5.51113548e-04 -2.43107717e-03 
 5.51648598e-04 -1.05242851e-04 
 5.51801286e-04 -7.97236154e-05 
 5.51963982e-04 -9.51604497e-05 
 5.52117897e-04 -8.19158567e-05 
 5.52389565e-04 -1.06226443e-04 
 5.52638375e-04 -1.02258149e-04 
 5.52982424e-04 -1.43196351e-04 
 5.53363578e-04 -1.59015059e-04 
 5.53792369e-04 -2.32862459e-04 
 5.54282540e-04 -2.83381476e-04 
 5.54783904e-04 -4.24576544e-04 
 5.55314513e-04 -5.36734087e-04 
 5.55794188e-04 -8.38656076e-04 
 5.56357321e-04 -8.24404877e-04 
 5.56932637e-04 -4.19576053e-03 
 5.57458936e-04 -4.45170767e-04 
 5.57477845e-04 -2.95044461e-04 
 5.57515664e-04 -1.10209209e-04 
 5.57559921e-04 -6.61672315e-05 
 5.57616993e-04 -4.61473853e-05 
 5.57674112e-04 -3.72013907e-05 
 5.57788350e-04 -2.89458237e-05 
 5.57947854e-04 -2.53829927e-05 
 5.58266862e-04 -2.57034579e-05 
 5.58645678e-04 -3.09012627e-05 
 5.59285534e-04 -4.14175768e-05 
 5.59827670e-04 -4.62502358e-05 
 5.60485910e-04 -4.86709512e-05 
 5.61078617e-04 -4.98236277e-05 
 5.61542550e-04 -4.10531550e-04 
 5.61905992e-04 -1.31555175e-04 
 5.62110133e-04 -9.02527805e-05 
 5.62293363e-04 -7.66225030e-05 
 5.62493383e-04 -6.28197229e-05 
 5.62726456e-04 -7.81396461e-05 
 5.63125224e-04 -9.60093113e-05 
 5.63666321e-04 -1.52758415e-04 
 5.64599894e-04 -2.59139099e-04 
 5.65708122e-04 -5.93423955e-04 
 5.67206572e-04 -2.23719043e-04 
 5.68146898e-04 -3.31217453e-03 
 5.68643454e-04 -1.94382898e-03 
 5.69221820e-04 -4.71628311e-05 
 5.69359713e-04 -5.52590565e-05 
 5.69511677e-04 -6.00982554e-05 
 5.69658144e-04 -6.91161916e-05 
 5.69884561e-04 -8.02137940e-05 
 5.70105269e-04 -9.52453386e-05 
 5.70384886e-04 -1.16121355e-04 
 5.70702856e-04 -1.44186702e-04 
 5.71048203e-04 -1.85385994e-04 
 5.71449248e-04 -2.35610022e-04 
 5.71858261e-04 -3.15862353e-04 
 5.72306019e-04 -4.00724875e-04 
 5.72729089e-04 -5.54620904e-04 
 5.73070200e-04 -6.57447666e-04 
 5.73341923e-04 -8.71111508e-04 
 5.73538930e-04 -9.62621756e-04 
 5.73717124e-04 -1.27492863e-03 
 5.73888154e-04 -1.06626134e-03 
 5.74050667e-04 -1.51335468e-03 
 5.74243732e-04 -1.73700826e-03 
 5.74443433e-04 -3.24134763e-03 
 5.74642372e-04 -1.72320866e-03 
 5.74792174e-04  5.83929373e-04 
 5.74933372e-04  2.84424761e-04 
 5.75073687e-04  2.23414307e-04 
 5.75210927e-04  1.36016823e-04 
 5.75436818e-04  1.39069743e-04 
 5.75888601e-04  1.73576377e-04 
 5.76792167e-04  2.20836586e-04 
 5.76983354e-04  2.20974398e-04 
 5.77365728e-04  2.22600089e-04 
 5.77846103e-04  2.23349693e-04 
 5.78387551e-04  2.22086190e-04 
 5.78768718e-04  2.70289169e-04 
 5.79081502e-04 -7.74608170e-04 
 5.79341866e-04 -7.65483789e-05 
 5.79527152e-04 -4.25831727e-05 
 5.79697496e-04 -6.22369375e-05 
 5.79908030e-04 -4.91438055e-05 
 5.80301386e-04 -9.43876686e-05 
 5.80848052e-04 -1.10641856e-04 
 5.81884872e-04 -2.88602569e-04 
 5.83807216e-04 -8.26188972e-04 
 5.86972304e-04 -3.14480758e-03 
 5.88546815e-04  6.28069246e-06 
 5.89047955e-04 -5.74858137e-05 
 5.89473834e-04 -8.34632868e-05 
 5.89893055e-04 -1.39754846e-04 
 5.90731495e-04 -2.39907112e-04 
 5.92360539e-04 -7.84934904e-04 
 5.95026014e-04  9.89421205e-06 
 6.00356964e-04  1.36617648e-03 
 6.05158622e-04 -1.56759999e-04 
 6.05344753e-04 -1.44174706e-04 
 6.05717015e-04 -1.34167573e-04 
 6.06007913e-04 -1.44548859e-04 
 6.06439366e-04 -1.72425821e-04 
 6.06872192e-04 -2.18371051e-04 
 6.07490918e-04 -3.11959313e-04 
 6.08363539e-04 -5.22533725e-04 
 6.09612244e-04 -1.32167758e-03 
 6.10977173e-04 -7.16455788e-04 
 6.11754079e-04  7.64661380e-04 
 6.12535230e-04  9.76802946e-04 
 6.13079150e-04  1.02818859e-03 
 6.13603572e-04  1.04040731e-03 
 6.14179616e-04  1.04498256e-03 
 6.14598120e-04  7.90714231e-04 
 6.14919847e-04 -1.36315000e-04 
 6.15099082e-04 -1.07654030e-04 
 6.15260828e-04 -8.28862055e-05 
 6.15438054e-04 -7.54455249e-05 
 6.15657236e-04 -7.50117313e-05 
 6.15993717e-04 -1.04378741e-04 
 6.16458372e-04 -1.43238238e-04 
 6.17250187e-04 -2.45454584e-04 
 6.18564836e-04 -6.13146225e-04 
 6.21132932e-04 -3.48332372e-05 
 6.22257884e-04  1.97370027e-03 
 6.22917159e-04 -4.05210837e-04 
 6.23677900e-04 -5.67907811e-05 
 6.23921836e-04 -6.73737609e-05 
 6.24155489e-04 -8.56473724e-05 
 6.24375286e-04 -9.21924411e-05 
 6.24814878e-04 -1.38290338e-04 
 6.25518106e-04 -2.08744763e-04 
 6.26713555e-04 -4.82939990e-04 
 6.29104451e-04  7.05882779e-06 
 6.31824281e-04  1.46473087e-03 
 6.32993809e-04 -7.29691406e-05 
 6.33464365e-04 -9.55635562e-05 
 6.33913061e-04 -1.20517911e-04 
 6.34402599e-04 -1.72426652e-04 
 6.35257145e-04 -2.99337554e-04 
 6.36222540e-04 -5.33327464e-04 
 6.37831097e-04 -2.25515399e-03 
 6.39459082e-04 -1.25111563e-04 
 6.40213187e-04  6.05159067e-03 
 6.40731197e-04  3.91595515e-05 
 6.40884196e-04 -3.14303100e-06 
 6.41036651e-04  2.92950049e-05 
 6.41206160e-04 -2.28850286e-05 
 6.41411523e-04 -1.36899405e-05 
 6.41629071e-04 -6.97147305e-05 
 6.41864629e-04 -6.38277115e-05 
 6.42128969e-04 -1.22971421e-04 
 6.42398226e-04 -1.28336370e-04 
 6.42695913e-04 -1.94991391e-04 
 6.42990618e-04 -2.19792346e-04 
 6.43305629e-04 -2.97515481e-04 
 6.43604310e-04 -3.49214067e-04 
 6.43878126e-04 -4.29710218e-04 
 6.44156679e-04 -5.14606265e-04 
 6.44384923e-04 -5.96146317e-04 
 6.44607799e-04 -7.11479603e-04 
 6.44860923e-04 -8.32625494e-04 
 6.45106910e-04 -1.07547315e-03 
 6.45417497e-04 -8.98338926e-04 
 6.45773909e-04 -2.20106894e-03 
 6.46249430e-04 -5.01438311e-04 
 6.46268593e-04 -3.37522979e-04 
 6.46306918e-04 -1.54384096e-04 
 6.46330097e-04 -1.41111959e-04 
 6.46357243e-04 -1.34758240e-04 
 6.46388574e-04 -1.31720283e-04 
 6.46451235e-04 -1.25299834e-04 
 6.46523956e-04 -1.01843269e-04 
 6.46597572e-04 -8.87758432e-05 
 6.46692131e-04 -8.13209231e-05 
 6.46881248e-04 -7.67065290e-05 
 6.47213131e-04 -8.27616176e-05 
 6.47797605e-04 -1.08239276e-04 
 6.48507872e-04 -1.30042012e-04 
 6.49074899e-04 -1.35856822e-04 
 6.49628339e-04 -1.38336095e-04 
 6.50237874e-04 -1.39493654e-04 
 6.50682053e-04 -4.89958172e-04 
 6.51006548e-04 -1.55079715e-04 
 6.51189786e-04 -1.09331872e-04 
 6.51406510e-04 -8.91057608e-05 
 6.51616822e-04 -7.58978457e-05 
 6.51882691e-04 -1.00639061e-04 
 6.52289250e-04 -1.23266492e-04 
 6.52888738e-04 -2.07206026e-04 
 6.53900208e-04 -3.60243392e-04 
 6.55805355e-04 -1.95088997e-03 
 6.59406578e-04 -2.79402095e-05 
 6.62588858e-04 -2.31014406e-04 
 6.63992855e-04 -1.48464646e-04 
 6.64534168e-04 -9.15529371e-05 
 6.65043519e-04 -1.33928350e-04 
 6.65596891e-04 -1.86272180e-04 
 6.66349703e-04 -3.26869695e-04 
 6.67855326e-04 -8.35715189e-04 
 6.69489101e-04 -5.92348919e-03 
 6.71298738e-04 -1.15274583e-02 
 6.72780456e-04 -1.48367050e-02 
 6.74211235e-04 -1.50300423e-02 
 6.75216419e-04 -2.66419589e-04 
 6.75750252e-04 -7.23212296e-05 
 6.76058791e-04 -1.28398269e-04 
 6.76360518e-04 -9.49680418e-05 
 6.76684049e-04 -1.76987759e-04 
 6.77331111e-04 -1.96292964e-04 
 6.78121936e-04 -4.17754568e-04 
 6.79172885e-04 -6.67317267e-04 
 6.80891031e-04 -1.15414311e-02 
 6.82672290e-04 -3.99879356e-05 
 6.83788501e-04  2.53099380e-03 
 6.84446358e-04 -5.71673280e-05 
 6.84912775e-04 -5.47522259e-05 
 6.85337437e-04 -7.24921716e-05 
 6.85801805e-04 -1.34029117e-04 
 6.86473798e-04 -2.22753450e-04 
 6.87803136e-04 -5.21378068e-04 
 6.88649556e-04 -1.54418985e-03 
 6.89079251e-04 -3.13811409e-03 
 6.89556755e-04 -3.32631696e-03 
 6.89873580e-04 -1.35308215e-04 
 6.90036346e-04 -8.98073612e-05 
 6.90200278e-04 -1.20320344e-04 
 6.90373103e-04 -8.81335177e-05 
 6.90681355e-04 -1.32745240e-04 
 6.90986978e-04 -1.14430215e-04 
 6.91448389e-04 -1.96163738e-04 
 6.92072228e-04 -2.32073221e-04 
 6.92987132e-04 -4.97807829e-04 
 6.94424266e-04 -1.09719017e-03 
 6.95319807e-04 -1.06631328e-02 
 6.95872702e-04 -9.63255009e-03 
 6.96406511e-04 -1.60080357e-04 
 6.96564821e-04 -7.38135737e-05 
 6.96725304e-04 -1.25777286e-04 
 6.96875703e-04 -8.24518369e-05 
 6.97148821e-04 -1.44888151e-04 
 6.97435638e-04 -1.15355538e-04 
 6.97835242e-04 -2.07612206e-04 
 6.98416326e-04 -2.28997590e-04 
 6.99255892e-04 -4.82126672e-04 
 7.00498647e-04 -8.98466826e-04 
 7.01275724e-04 -1.12818432e-02 
 7.01701530e-04 -3.99735208e-04 
 7.01907377e-04 -2.42239812e-04 
 7.02102849e-04 -3.05805039e-04 
 7.02312562e-04 -1.94359272e-04 
 7.02648567e-04 -2.86111577e-04 
 7.02969191e-04 -2.04133978e-04 
 7.03413069e-04 -3.56231049e-04 
 7.03905195e-04 -3.17016970e-04 
 7.04474167e-04 -5.94018483e-04 
 7.05132932e-04 -6.41874604e-04 
 7.05824459e-04 -1.39148992e-03 
 7.06625988e-04 -1.60964816e-03 
 7.07275623e-04 -1.72504281e-02 
 7.07568025e-04 -1.52705800e-02 
 7.07867577e-04 -1.26885145e-02 
 7.08184011e-04 -1.18857108e-02 
 7.08443404e-04 -4.25232250e-04 
 7.08600743e-04 -2.21116587e-04 
 7.08753185e-04 -3.16073366e-04 
 7.08943816e-04 -1.54440390e-04 
 7.09223473e-04 -2.70200850e-04 
 7.09571728e-04 -1.35069293e-04 
 7.10103073e-04 -3.23020507e-04 
 7.10904642e-04 -2.72323540e-04 
 7.12319383e-04 -1.02194032e-03 
 7.14766377e-04  2.05144988e-04 
 7.18231839e-04  5.59070578e-04 
 7.20792827e-04 -6.91495967e-05 
 7.22154542e-04 -2.47108669e-04 
 7.23518932e-04 -4.25770987e-04 
 7.25082397e-04 -1.91484315e-03 
 7.28209327e-04  3.11407178e-04 
 7.30161312e-04 -1.65092421e-02 
 7.31191140e-04 -9.71676480e-03 
 7.32254834e-04 -2.17793170e-04 
 7.33136124e-04 -1.14031045e-04 
 7.33982148e-04 -2.73074493e-04 
 7.35028780e-04 -4.27869082e-04 
 7.36538825e-04 -1.40602046e-03 
 7.39558914e-04  1.07931779e-03 
 7.40098886e-04  8.11484762e-04 
 7.41178830e-04  5.77191688e-04 
 7.42322286e-04  6.74769045e-04 
 7.42624808e-04  6.78853654e-04 
 7.43117722e-04  6.81296264e-04 
 7.43439620e-04  8.10709704e-04 
 7.43732341e-04  8.92136177e-04 
 7.43959046e-04 -1.21323230e-04 
 7.44129980e-04 -1.11791070e-04 
 7.44290156e-04 -8.56135067e-05 
 7.44484956e-04 -8.41989135e-05 
 7.44831414e-04 -9.20752585e-05 
 7.45287683e-04 -1.38693917e-04 
 7.46076433e-04 -2.52915066e-04 
 7.47512791e-04 -5.69972693e-04 
 7.49923271e-04 -3.09129517e-03 
 7.51012172e-04 -5.70098485e-05 
 7.51471885e-04 -7.27856612e-05 
 7.51873868e-04 -1.33605318e-04 
 7.52270581e-04 -1.53230128e-04 
 7.53064008e-04 -3.02669365e-04 
 7.54650861e-04 -8.07681881e-04 
 7.57159033e-04 -1.80063066e-04 
 7.62175375e-04  1.35254745e-02 
 7.68308460e-04 -7.29374196e-05 
 7.68582421e-04 -7.74773094e-05 
 7.69130342e-04 -1.12363276e-04 
 7.69597091e-04 -1.58557558e-04 
 7.70237301e-04 -2.45746744e-04 
 7.71085800e-04 -4.26850477e-04 
 7.72195209e-04 -8.71726974e-04 
 7.73785317e-04 -2.05884048e-03 
 7.74992856e-04 -9.37312749e-03 
 7.75601623e-04 -1.00369509e-02 
 7.76112131e-04 -1.01929992e-02 
 7.76597282e-04 -1.02460863e-02 
 7.76977406e-04 -1.02513772e-02 
 7.77267496e-04 -4.53443103e-04 
 7.77426330e-04 -2.55007093e-04 
 7.77571186e-04 -3.18314233e-04 
 7.77723907e-04 -1.71269497e-04 
 7.77890735e-04 -2.42818093e-04 
 7.78162244e-04 -1.41197284e-04 
 7.78499628e-04 -2.60368241e-04 
 7.78966097e-04 -1.99803868e-04 
 7.79781102e-04 -4.71761035e-04 
 7.81099434e-04 -7.44207893e-04 
 7.81894864e-04 -1.70598926e-02 
 7.82306969e-04 -1.40798099e-02 
 7.82707678e-04 -1.18578697e-02 
 7.83006234e-04 -4.10782923e-04 
 7.83186818e-04 -2.19859682e-04 
 7.83367534e-04 -2.99666524e-04 
 7.83574912e-04 -1.55430553e-04 
 7.83931088e-04 -2.67012245e-04 
 7.84351087e-04 -1.55435963e-04 
 7.85036869e-04 -3.81385585e-04 
 7.86093544e-04 -4.34158530e-04 
 7.88082434e-04 -4.59897962e-03 
 7.91390948e-04  1.61389813e-04 
 7.95965548e-04 -5.72407372e-04 
 8.00884885e-04 -1.51690990e-04 
 8.04579927e-04 -7.84307122e-03 
 8.06420765e-04 -1.61351461e-04 
 8.07151308e-04 -1.60652398e-04 
 8.07867007e-04 -1.89132934e-04 
 8.08527068e-04 -3.57446972e-04 
 8.09847189e-04 -7.20299012e-04 
 8.12256779e-04 -1.34873193e-03 
 8.12645241e-04 -9.59622119e-04 
 8.13422165e-04 -5.61096889e-04 
 8.14137025e-04 -7.19326470e-04 
 8.14616402e-04 -7.63526782e-04 
 8.15068485e-04 -7.78435268e-04 
 8.15481679e-04 -7.84068493e-04 
 8.15953653e-04 -7.88563265e-04 
 8.16283394e-04 -6.30947487e-04 
 8.16555382e-04 -7.43793104e-04 
 8.16778405e-04 -1.48761169e-04 
 8.16942838e-04 -1.04654130e-04 
 8.17096340e-04 -1.05535641e-04 
 8.17291526e-04 -8.55839118e-05 
 8.17611844e-04 -1.16381050e-04 
 8.18044747e-04 -1.34286333e-04 
 8.18779810e-04 -2.64429244e-04 
 8.20085524e-04 -5.06039257e-04 
 8.22318367e-04 -1.34834005e-02 
 8.26738979e-04 -4.50809620e-05 
 8.33095964e-04 -1.05883283e-03 
 8.41372073e-04 -1.60772277e-04 
 8.50076064e-04 -9.57818291e-04 
 8.59385072e-04 -1.45047715e-04 
 8.69385072e-04 -9.15003235e-04 
 8.79385072e-04 -1.32776551e-04 
 8.89354817e-04 -6.47007213e-04 
 8.96719109e-04 -1.24210430e-04 
 8.99800688e-04  1.14890443e-03 
 9.02401170e-04 -7.84069206e-05 
 9.03394565e-04 -1.42502490e-04 
 9.04363477e-04 -3.54721230e-04 
 9.05374977e-04 -6.18204700e-04 
 9.07397978e-04 -1.35060494e-03 
 9.07645004e-04 -1.45349474e-03 
 9.08139056e-04 -5.39389205e-04 
 9.08416746e-04 -5.63733954e-04 
 9.08683205e-04 -6.48843127e-04 
 9.09022959e-04 -7.34314317e-04 
 9.09702466e-04 -8.44626718e-04 
 9.10474389e-04 -8.67593056e-04 
 9.11121693e-04 -8.75372312e-04 
 9.11635399e-04 -1.00000174e-04 
 9.12016652e-04 -1.93863477e-04 
 9.12378016e-04 -1.81631492e-04 
 9.12669858e-04 -1.79431371e-04 
 9.12953712e-04 -2.41305461e-04 
 9.13406792e-04 -2.95025768e-04 
 9.14182628e-04 -5.32848601e-04 
 9.15475939e-04 -1.10135750e-03 
 9.16293613e-04 -6.00346347e-03 
 9.16755526e-04 -6.84780905e-03 
 9.17238513e-04 -4.47829602e-04 
 9.17382740e-04 -3.94516408e-04 
 9.17535845e-04 -3.92053420e-04 
 9.17684070e-04 -3.06904171e-04 
 9.17936371e-04 -3.23332109e-04 
 9.18171621e-04 -2.66221076e-04 
 9.18491422e-04 -3.26454870e-04 
 9.18846185e-04 -3.08992977e-04 
 9.19243755e-04 -4.27531871e-04 
 9.19715230e-04 -4.68049506e-04 
 9.20214495e-04 -6.96429077e-04 
 9.20788220e-04 -8.47096174e-04 
 9.21361727e-04 -1.40288733e-03 
 9.21888474e-04 -2.23604983e-03 
 9.22250247e-04 -3.01875379e-03 
 9.22467658e-04 -1.81366987e-03 
 9.22676568e-04 -9.49140914e-03 
 9.22857945e-04 -2.69537693e-03 
 9.23029197e-04  4.76210446e-03 
 9.23202500e-04  2.99930060e-03 
 9.23382169e-04  3.01987769e-03 
 9.23594492e-04  3.17539460e-03 
 9.23989679e-04  3.73468483e-03 
 9.24780053e-04  4.64302203e-03 
 9.26195482e-04  4.88627470e-03 
 9.27352106e-04 -2.72231037e-04 
 9.28158878e-04 -4.85156365e-04 
 9.28905783e-04 -7.27210050e-04 
 9.29797673e-04 -1.34158898e-03 
 9.30792174e-04 -1.54025288e-03 
 9.31258136e-04 -1.48434804e-04 
 9.31594077e-04 -1.24326578e-04 
 9.31902081e-04 -1.59399640e-04 
 9.32226083e-04 -1.62315125e-04 
 9.32874085e-04 -2.75772898e-04 
 9.33986487e-04 -4.85235778e-04 
 9.36211291e-04 -5.11398130e-03 
 9.40660900e-04 -4.13979258e-05 
 9.46215426e-04 -4.48459264e-04 
 9.49579042e-04 -2.23101921e-04 
 9.50229796e-04 -1.41386053e-04 
 9.50800748e-04 -2.10947268e-04 
 9.51463131e-04 -3.23714670e-04 
 9.52329540e-04 -5.68464741e-04 
 9.53209171e-04 -1.03164799e-03 
 9.53964904e-04 -1.82856845e-03 
 9.54705869e-04 -6.48180097e-03 
 9.55325525e-04 -5.44451364e-04 
 9.55833344e-04  1.54740216e-02 
 9.56096596e-04  1.54068573e-02 
 9.56376822e-04  4.52334261e-04 
 9.56508752e-04  1.95466254e-04 
 9.56638799e-04  2.86698454e-04 
 9.56806240e-04  6.49781691e-05 
 9.57060952e-04  1.36911334e-04 
 9.57412908e-04 -9.13336309e-05 
 9.57997636e-04 -5.76311668e-05 
 9.59023643e-04 -4.43491828e-04 
 9.61075657e-04 -2.28352457e-03 
 9.65179686e-04 -2.93100272e-04 
 9.71150009e-04  6.86395278e-04 
 9.76075346e-04 -3.38210779e-04 
 9.78655701e-04 -6.09885005e-04 
 9.81280942e-04 -3.66292207e-04 
 9.83109970e-04  2.30258729e-03 
 9.84117759e-04 -2.41869492e-02 
 9.85112453e-04 -6.08292630e-04 
 9.86161922e-04 -1.78999760e-04 
 9.87110050e-04 -4.19940698e-04 
 9.88092544e-04 -7.39609638e-04 
 9.90057532e-04 -1.86041742e-02 
 9.91008847e-04 -4.17479876e-04 
 9.91480908e-04 -2.14956462e-04 
 9.91958511e-04 -2.81198427e-04 
 9.92401401e-04 -2.47623825e-04 
 9.93287180e-04 -5.01614735e-04 
 9.94344217e-04 -7.65094647e-04 
 9.96309288e-04 -8.38088236e-03 
 9.98963116e-04  1.50472575e-05 
 1.00058094e-03 -1.28220937e-03 
 1.00200913e-03 -2.32758119e-04 
 1.00251492e-03 -1.40034609e-04 
 1.00300960e-03 -1.73707645e-04 
 1.00361279e-03 -2.54225863e-04 
 1.00421816e-03 -4.03727231e-04 
 1.00528262e-03 -7.34037688e-04 
 1.00741153e-03 -1.57315383e-02 
 1.01119870e-03 -1.52519618e-04 
 1.01605602e-03  1.18594834e-03 
 1.02104431e-03 -2.21424672e-04 
 1.02134907e-03 -1.51981183e-04 
 1.02195861e-03 -1.30281931e-04 
 1.02222059e-03 -1.66171558e-04 
 1.02242438e-03 -1.96547045e-04 
 1.02268887e-03 -2.42230111e-04 
 1.02321785e-03 -3.55599206e-04 
 1.02413944e-03 -6.50716883e-04 
 1.02598261e-03 -2.47106633e-03 
 1.02703453e-03 -1.55101534e-03 
 1.02768390e-03  4.94089440e-04 
 1.02839589e-03  6.36891154e-04 
 1.02898156e-03  7.03047448e-04 
 1.02954640e-03  7.16136161e-04 
 1.03014821e-03  7.19379352e-04 
 1.03058963e-03  9.04521712e-04 
 1.03092414e-03 -2.76228567e-04 
 1.03112001e-03 -2.17546345e-04 
 1.03129640e-03 -1.68652056e-04 
 1.03147353e-03 -1.55600167e-04 
 1.03167616e-03 -1.49843860e-04 
 1.03201627e-03 -1.94856469e-04 
 1.03245990e-03 -2.51752162e-04 
 1.03322265e-03 -4.13237156e-04 
 1.03447706e-03 -9.66084050e-04 
 1.03612449e-03 -4.43713237e-04 
 1.03727834e-03 -6.91691247e-03 
 1.03784508e-03 -8.50843094e-03 
 1.03852881e-03 -1.88119346e-04 
 1.03871221e-03 -1.51064010e-04 
 1.03889601e-03 -1.78277632e-04 
 1.03906632e-03 -1.64751274e-04 
 1.03938800e-03 -2.15006435e-04 
 1.03972454e-03 -2.31382482e-04 
 1.04024377e-03 -3.51572204e-04 
 1.04106823e-03 -5.31112291e-04 
 1.04235751e-03 -1.33016965e-03 
 1.04389683e-03 -8.13982143e-06 
 1.04489473e-03  7.53930836e-04 
 1.04549397e-03  3.68411148e-04 
 1.04605432e-03 -1.21380458e-05 
 1.04646022e-03 -2.42167702e-05 
 1.04682745e-03 -4.08509001e-05 
 1.04725393e-03 -5.50756236e-05 
 1.04810690e-03 -1.12001691e-04 
 1.04981284e-03 -3.18138414e-04 
 1.05148647e-03 -3.35017014e-03 
 1.05226212e-03 -9.64540850e-05 
 1.05275403e-03 -6.13720297e-05 
 1.05320535e-03 -8.89251696e-05 
 1.05365570e-03 -8.45201900e-05 
 1.05445737e-03 -1.67661608e-04 
 1.05570067e-03 -2.87165287e-04 
 1.05768446e-03 -6.27304638e-03 
 1.06062774e-03 -8.98919989e-06 
 1.06230814e-03 -3.50842869e-04 
 1.06348876e-03 -2.56841766e-03 
 1.06431930e-03 -7.76619134e-05 
 1.06474180e-03 -5.45961981e-05 
 1.06515534e-03 -6.97190918e-05 
 1.06553540e-03 -7.11112452e-05 
 1.06626636e-03 -1.28094985e-04 
 1.06763797e-03 -2.64853053e-04 
 1.06940187e-03 -1.38531998e-03 
 1.07292967e-03  1.91263122e-05 
 1.07535548e-03 -1.17075507e-03 
 1.07683020e-03 -8.40556220e-05 
 1.07744521e-03 -4.65124454e-05 
 1.07804609e-03 -6.79557175e-05 
 1.07865907e-03 -9.87504400e-05 
 1.07962871e-03 -2.00040663e-04 
 1.08125798e-03 -5.57081186e-04 
 1.08245142e-03 -3.11895170e-03 
 1.08319952e-03 -9.36645534e-05 
 1.08373878e-03 -6.25392298e-05 
 1.08423337e-03 -9.52186765e-05 
 1.08469570e-03 -9.45960273e-05 
 1.08562036e-03 -2.03140065e-04 
 1.08698065e-03 -3.81360373e-04 
 1.08964910e-03 -2.73802907e-03 
 1.09083294e-03 -2.56940147e-05 
 1.09129920e-03 -4.66232526e-05 
 1.09173792e-03 -6.14759921e-05 
 1.09221400e-03 -9.28503793e-05 
 1.09316616e-03 -1.70992549e-04 
 1.09475378e-03 -4.92943112e-04 
 1.09623416e-03 -5.82649341e-03 
 1.09742779e-03 -1.37203901e-03 
 1.09793388e-03  3.31497529e-04 
 1.09853253e-03  4.11484629e-04 
 1.09911728e-03  4.85660317e-04 
 1.10028679e-03  5.21552545e-04 
 1.10121528e-03  5.25745770e-04 
 1.10193673e-03  8.74609654e-05 
 1.10216591e-03  5.80209182e-05 
 1.10241203e-03  4.01305378e-05 
 1.10268168e-03  1.50149693e-05 
 1.10311996e-03 -2.09346168e-05 
 1.10377402e-03 -6.59067748e-05 
 1.10471063e-03 -1.61764254e-04 
 1.10616473e-03 -4.21466857e-04 
 1.10719463e-03 -2.24916191e-03 
 1.10770219e-03 -2.65869771e-03 
 1.10819587e-03 -9.36811276e-05 
 1.10845293e-03 -6.35189174e-05 
 1.10872165e-03 -7.94040209e-05 
 1.10901965e-03 -6.39141121e-05 
 1.10961564e-03 -1.07842860e-04 
 1.11025283e-03 -1.26203610e-04 
 1.11149417e-03 -3.18641343e-04 
 1.11321788e-03 -9.58196612e-04 
 1.11666530e-03 -5.15911644e-03 
 1.11815187e-03 -6.39457555e-05 
 1.11869724e-03 -7.09383590e-05 
 1.11924740e-03 -8.73803527e-05 
 1.11981237e-03 -1.29077835e-04 
 1.12087111e-03 -2.40280184e-04 
 1.12233056e-03 -6.50281098e-04 
 1.12377629e-03 -1.61035047e-03 
 1.12461184e-03 -4.42062284e-05 
 1.12524296e-03 -4.42222184e-05 
 1.12583112e-03 -8.12655707e-05 
 1.12647696e-03 -1.09135494e-04 
 1.12776863e-03 -2.85483422e-04 
 1.13025409e-03  1.63641418e-05 
 1.13439161e-03  5.81394435e-04 
 1.13604002e-03 -6.62536066e-05 
 1.13688848e-03 -8.44933569e-05 
 1.13754721e-03 -1.18661119e-04 
 1.13823529e-03 -1.94143251e-04 
 1.13961144e-03 -4.47870847e-04 
 1.14236376e-03 -2.50767063e-04 
 1.14286971e-03 -1.80441759e-04 
 1.14374756e-03 -1.26443950e-04 
 1.14467446e-03 -1.60366073e-04 
 1.14502144e-03 -1.63901539e-04 
 1.14544856e-03 -1.65933201e-04 
 1.14589372e-03 -1.67511409e-04 
 1.14621109e-03 -9.81782124e-05 
 1.14647025e-03 -4.58165705e-05 
 1.14668042e-03 -8.17696524e-05 
 1.14683625e-03 -6.48480622e-05 
 1.14698213e-03 -5.76168170e-05 
 1.14716539e-03 -4.95383211e-05 
 1.14746374e-03 -5.55483771e-05 
 1.14786120e-03 -6.84822052e-05 
 1.14852342e-03 -1.18566619e-04 
 1.14970462e-03 -2.23382553e-04 
 1.15167721e-03 -2.25339201e-03 
 1.15549253e-03 -2.55070657e-05 
 1.16265686e-03 -7.51560907e-06 
 1.17174819e-03 -1.20515671e-04 
 1.18174819e-03 -1.23244495e-04 
 1.19174819e-03 -5.94300317e-05 
 1.20174819e-03 -7.53683940e-05 
 1.21174819e-03 -9.29844470e-05 
 1.22174819e-03 -6.31223839e-05 
 1.23174819e-03 -7.85541867e-05 
 1.23933085e-03 -4.19159872e-05 
 1.24249590e-03 -6.51725844e-05 
 1.24495673e-03  1.62715837e-03 
 1.24598967e-03 -5.74377850e-06 
 1.24677559e-03 -5.10878196e-05 
 1.24749828e-03 -1.18099860e-04 
 1.24819691e-03 -1.75256755e-04 
 1.24959418e-03 -4.84340856e-04 
 1.25213040e-03  3.23651082e-07 
 1.25720285e-03  1.89664406e-03 
 1.26134566e-03 -1.04317077e-04 
 1.26151885e-03 -9.93332164e-05 
 1.26186522e-03 -9.46365124e-05 
 1.26240397e-03 -1.11671238e-04 
 1.26299076e-03 -1.52657674e-04 
 1.26404575e-03 -2.85041212e-04 
 1.26522573e-03 -6.00437865e-04 
 1.26682455e-03 -2.86081814e-04 
 1.26783152e-03 -2.10841487e-03 
 1.26844018e-03 -2.31667372e-03 
 1.26898514e-03 -2.37558279e-03 
 1.26950865e-03 -2.38849576e-03 
 1.27012287e-03 -2.39749005e-03 
 1.27055405e-03 -2.41727876e-03 
 1.27091324e-03 -1.29955497e-04 
 1.27111255e-03 -7.63647740e-05 
 1.27129460e-03 -7.83446883e-05 
 1.27149191e-03 -5.33785654e-05 
 1.27180016e-03 -8.55447041e-05 
 1.27215201e-03 -8.10201714e-05 
 1.27277710e-03 -1.55461316e-04 
 1.27378819e-03 -2.43910261e-04 
 1.27543656e-03 -9.55370331e-04 
 1.27656457e-03  1.84611634e-06 
 1.27741837e-03  8.82981812e-05 
 1.27784542e-03 -6.08096711e-05 
 1.27832148e-03 -7.60695771e-04 
 1.27859852e-03 -4.91455203e-05 
 1.27876966e-03 -4.07963342e-05 
 1.27894389e-03 -5.65112926e-05 
 1.27911368e-03 -5.06589677e-05 
 1.27943886e-03 -7.61797493e-05 
 1.27975780e-03 -7.91994681e-05 
 1.28022181e-03 -1.28656490e-04 
 1.28088021e-03 -1.71008060e-04 
 1.28183710e-03 -3.69857253e-04 
 1.28334190e-03 -5.70252691e-04 
 1.28621894e-03 -3.03306903e-03 
 1.28794009e-03 -4.31971392e-06 
 1.28860049e-03 -5.67230024e-05 
 1.28924618e-03 -1.07251841e-04 
 1.28986177e-03 -1.72815546e-04 
 1.29109294e-03 -3.85374316e-04 
 1.29185216e-03 -6.83187553e-04 
 1.29204197e-03 -7.83996556e-04 
 1.29242158e-03 -1.42030790e-03 
 1.29281955e-03 -1.85185645e-03 
 1.29327980e-03 -7.43950837e-04 
 1.29330707e-03 -8.23386757e-04 
 1.29336159e-03 -8.09809745e-04 
 1.29347065e-03 -6.66072946e-04 
 1.29348347e-03 -6.51053329e-04 
 1.29350910e-03 -6.20132698e-04 
 1.29356037e-03 -5.75966272e-04 
 1.29363275e-03 -5.39680838e-04 
 1.29377379e-03 -5.08970797e-04 
 1.29405586e-03 -5.18932482e-04 
 1.29461999e-03 -6.44433440e-04 
 1.29538196e-03 -7.84752164e-04 
 1.29569747e-03 -8.04581079e-04 
 1.29618325e-03 -8.17549292e-04 
 1.29623885e-03 -8.18372113e-04 
 1.29635007e-03 -8.19783524e-04 
 1.29657250e-03 -8.21875936e-04 
 1.29672040e-03 -8.25662947e-04 
 1.29683984e-03 -8.26614166e-04 
 1.29695288e-03 -8.22490449e-04 
 1.29705829e-03 -7.94457153e-04 
 1.29714503e-03 -7.71017292e-04 
 1.29720941e-03 -7.32512574e-04 
 1.29726994e-03 -7.21221159e-04 
 1.29732809e-03 -7.51040619e-04 
 1.29742540e-03 -9.30946134e-04 
 1.29752622e-03 -8.01812719e-05 
 1.29759393e-03 -4.14778964e-05 
 1.29765679e-03 -6.24158993e-05 
 1.29774517e-03 -3.44314601e-05 
 1.29783185e-03 -5.63954862e-05 
 1.29793685e-03 -3.86898133e-05 
 1.29805977e-03 -6.20065339e-05 
 1.29820825e-03 -4.86074421e-05 
 1.29839228e-03 -7.60432235e-05 
 1.29863491e-03 -6.86898290e-05 
 1.29896063e-03 -1.11724632e-04 
 1.29943759e-03 -1.23247827e-04 
 1.30017832e-03 -2.55560621e-04 
 1.30142252e-03 -4.29430327e-04 
 1.30382499e-03 -1.99907252e-03 
 1.30557845e-03  1.86807455e-05 
 1.30645339e-03 -7.51075596e-05 
 1.30731181e-03 -1.43651202e-04 
 1.30827337e-03 -3.12298592e-04 
 1.31019649e-03 -1.12446575e-03 
 1.31129368e-03 -6.64800970e-03 
 1.31199265e-03 -5.79484264e-03 
 1.31263880e-03  1.74559590e-05 
 1.31291756e-03  8.16990271e-05 
 1.31317962e-03  1.81742434e-05 
 1.31341778e-03  1.30683169e-05 
 1.31389412e-03 -5.80750526e-05 
 1.31481542e-03 -1.29212894e-04 
 1.31665803e-03 -6.35053925e-04 
 1.32034324e-03  6.56150490e-05 
 1.32771366e-03 -2.46332246e-03 
 1.33744200e-03 -1.40573825e-04 
 1.34742112e-03 -5.87812449e-03 
 1.35742112e-03 -1.41836085e-04 
 1.35867112e-03 -1.52421947e-04 
 1.36062748e-03 -3.51965468e-04 
 1.36198499e-03 -9.82599802e-04 
 1.36355443e-03 -5.94072837e-04 
 1.36435986e-03  4.05422217e-04 
 1.36515370e-03  5.15606353e-04 
 1.36572212e-03  5.41321930e-04 
 1.36626663e-03  5.46315628e-04 
 1.36690492e-03  5.49282487e-04 
 1.36735278e-03  3.23901915e-05 
 1.36770017e-03 -1.16398605e-04 
 1.36789749e-03 -8.10331372e-05 
 1.36807339e-03 -6.74182145e-05 
 1.36826581e-03 -6.04439399e-05 
 1.36856126e-03 -8.24218974e-05 
 1.36889911e-03 -1.01090959e-04 
 1.36949178e-03 -1.68410675e-04 
 1.37045073e-03 -2.94514989e-04 
 1.37223855e-03 -1.20114261e-03 
 1.37572945e-03 -2.24599202e-05 
 1.37722611e-03 -2.09417363e-04 
 1.37727825e-03 -5.21635161e-04 
 1.37738254e-03 -1.11512222e-03 
 1.37745959e-03 -1.42291661e-03 
 1.37753231e-03 -1.55864915e-03 
 1.37762119e-03 -1.62918531e-03 
 1.37779896e-03 -1.70836350e-03 
 1.37815450e-03 -2.00124562e-03 
 1.37851079e-03 -9.76963982e-05 
 1.37875803e-03 -7.45927515e-05 
 1.37898640e-03 -1.02697512e-04 
 1.37923496e-03 -8.82420422e-05 
 1.37973207e-03 -1.47972061e-04 
 1.38037113e-03 -1.79867160e-04 
 1.38156074e-03 -4.64722551e-04 
 1.38369164e-03 -1.41357061e-04 
 1.38702926e-03 -1.88249159e-03 
 1.38933646e-03 -3.37385052e-05 
 1.39023356e-03 -1.16934924e-04 
 1.39111060e-03 -2.06629623e-04 
 1.39198246e-03 -4.01654495e-04 
 1.39372619e-03 -8.72792337e-04 
 1.39504084e-03 -7.00422131e-03 
 1.39576949e-03 -7.00159109e-03 
 1.39643780e-03 -2.01074429e-04 
 1.39685887e-03 -1.20994945e-04 
 1.39726307e-03 -1.52793545e-04 
 1.39765844e-03 -1.39611882e-04 
 1.39844919e-03 -2.59028414e-04 
 1.40003069e-03 -5.77935493e-04 
 1.40042606e-03 -7.99570161e-04 
 1.40121681e-03 -1.09553265e-03 
 1.40207934e-03 -6.66449315e-04 
 1.40265310e-03 -1.58414855e-04 
 1.40308650e-03 -1.73893360e-04 
 1.40349145e-03 -2.15744831e-04 
 1.40391842e-03 -2.28059115e-04 
 1.40477237e-03 -2.43776578e-04 
 1.40548058e-03 -2.39122591e-04 
 1.40602302e-03 -1.89035188e-04 
 1.40632098e-03 -1.72833261e-04 
 1.40661289e-03 -1.58805185e-04 
 1.40687919e-03 -1.67104011e-04 
 1.40715848e-03 -1.87198912e-04 
 1.40752882e-03 -2.16851094e-04 
 1.40807551e-03 -3.03445272e-04 
 1.40902595e-03 -4.92660123e-04 
 1.41090915e-03 -2.50262457e-03 
 1.41448142e-03 -5.80019156e-05 
 1.41742561e-03  5.97865904e-04 
 1.41893434e-03 -1.62635112e-04 
 1.41977972e-03 -1.11454884e-04 
 1.42058333e-03 -2.20634037e-04 
 1.42139106e-03 -3.32758017e-04 
 1.42243420e-03 -7.29679524e-04 
 1.42374456e-03 -1.86054277e-03 
 1.42494175e-03 -1.32458374e-02 
 1.42547330e-03 -1.26644945e-02 
 1.42598514e-03 -3.56209594e-04 
 1.42625932e-03 -1.96300245e-04 
 1.42650780e-03 -2.37594116e-04 
 1.42678089e-03 -1.49272519e-04 
 1.42732708e-03 -2.45089947e-04 
 1.42797560e-03 -2.24118935e-04 
 1.42887047e-03 -5.00229583e-04 
 1.43061133e-03 -1.34456539e-03 
 1.43190960e-03 -2.55115001e-02 
 1.43268267e-03 -6.50836395e-04 
 1.43321187e-03 -2.78917156e-04 
 1.43369168e-03 -3.59180209e-04 
 1.43419527e-03 -2.52690726e-04 
 1.43520243e-03 -5.64079715e-04 
 1.43636135e-03 -7.44816835e-04 
 1.43787566e-03 -1.20540054e-02 
 1.43850049e-03 -3.57251755e-03 
 1.43911738e-03 -1.35506856e-04 
 1.43938779e-03 -9.17665905e-05 
 1.43959451e-03 -1.30283361e-04 
 1.43979760e-03 -1.00070134e-04 
 1.44020379e-03 -1.62636811e-04 
 1.44068021e-03 -1.66073526e-04 
 1.44147405e-03 -3.35707518e-04 
 1.44273809e-03 -6.16736277e-04 
 1.44372918e-03 -1.02582566e-02 
 1.44423326e-03 -1.00274405e-02 
 1.44474930e-03 -2.94668877e-04 
 1.44504019e-03 -1.67124189e-04 
 1.44531231e-03 -2.04652788e-04 
 1.44557219e-03 -1.38573584e-04 
 1.44609194e-03 -2.27050254e-04 
 1.44711842e-03 -2.81901719e-04 
 1.44871275e-03 -9.35103400e-04 
 1.45190142e-03  1.81096136e-04 
 1.45573914e-03 -5.52223256e-03 
 1.45954359e-03 -1.99581179e-04 
 1.46274652e-03 -3.83428574e-03 
 1.46313307e-03 -3.85498761e-03 
 1.46353418e-03 -4.23095109e-03 
 1.46406609e-03 -5.24608250e-03 
 1.46484160e-03 -6.04562708e-03 
 1.46526509e-03 -6.15583540e-03 
 1.46569202e-03 -6.20002061e-03 
 1.46619326e-03 -6.22136651e-03 
 1.46653827e-03 -6.14911938e-03 
 1.46682401e-03 -6.23754945e-03 
 1.46705753e-03 -2.86648038e-04 
 1.46722982e-03 -1.47203747e-04 
 1.46739034e-03 -1.99150288e-04 
 1.46759197e-03 -9.79353633e-05 
 1.46793722e-03 -1.80974902e-04 
 1.46840333e-03 -1.17662249e-04 
 1.46921494e-03 -3.27485556e-04 
 1.47067676e-03 -5.19199169e-04 
 1.47317317e-03 -3.58947811e-03 
 1.47438917e-03  5.20068171e-05 
 1.47477604e-03 -5.33117192e-05 
 1.47510436e-03 -3.52819198e-05 
 1.47542776e-03 -1.25988962e-04 
 1.47607457e-03 -1.53116514e-04 
 1.47736819e-03 -5.11741697e-04 
 1.47937656e-03 -1.52014478e-03 
 1.48339331e-03 -2.28005945e-02 
 1.48636557e-03 -2.79995060e-04 
 1.48756701e-03 -1.78914615e-04 
 1.48870793e-03 -3.81353655e-04 
 1.48984169e-03 -8.52813682e-04 
 1.49202924e-03  1.13194451e-03 
 1.49240047e-03  1.33031969e-03 
 1.49314291e-03  1.68837620e-03 
 1.49363489e-03  1.77365835e-03 
 1.49416091e-03  1.80096112e-03 
 1.49466683e-03  1.80699841e-03 
 1.49505895e-03  1.80950739e-03 
 1.49538193e-03 -1.79775774e-04 
 1.49555618e-03 -1.55735705e-04 
 1.49571670e-03 -1.13194720e-04 
 1.49587923e-03 -1.10804980e-04 
 1.49605541e-03 -8.70517074e-05 
 1.49635786e-03 -1.24802141e-04 
 1.49673186e-03 -1.44581864e-04 
 1.49723398e-03 -2.21614638e-04 
 1.49808640e-03 -3.81461561e-04 
 1.49944339e-03 -8.65870836e-04 
 1.50092136e-03 -1.31607295e-02 
 1.50311256e-03 -1.85031862e-04 
 1.50445082e-03  1.17448146e-02 
 1.50513270e-03  2.11656671e-03 
 1.50595607e-03 -1.49397738e-05 
 1.50615427e-03 -3.05259050e-05 
 1.50634500e-03 -5.40542368e-05 
 1.50654694e-03 -6.48282759e-05 
 1.50694010e-03 -1.15863175e-04 
 1.50733190e-03 -1.49877441e-04 
 1.50797024e-03 -2.64653272e-04 
 1.50894500e-03 -4.69852667e-04 
 1.51047002e-03 -1.72701609e-03 
 1.51180723e-03 -6.38138314e-05 
 1.51277795e-03  3.69114229e-03 
 1.51336738e-03  2.34578467e-05 
 1.51369506e-03 -3.17467109e-05 
 1.51406192e-03 -5.94840811e-05 
 1.51444213e-03 -1.13991710e-04 
 1.51501416e-03 -1.76245434e-04 
 1.51559406e-03 -2.78153321e-04 
 1.51637309e-03 -4.83971021e-04 
 1.51740817e-03 -8.85737931e-04 
 1.51759242e-03 -1.09839114e-03 
 1.51788459e-03 -1.50438219e-03 
 1.51815514e-03 -1.53630008e-03 
 1.51840286e-03 -2.51773091e-03 
 1.51887068e-03 -2.07201077e-03 
 1.51921253e-03 -4.17448338e-04 
 1.51948708e-03 -3.88772321e-04 
 1.51974499e-03 -4.45714961e-04 
 1.52003239e-03 -4.94017650e-04 
 1.52060719e-03 -6.08899673e-04 
 1.52153535e-03 -6.58502677e-04 
 1.52233686e-03 -6.60092222e-04 
 1.52292014e-03  7.26541899e-05 
 1.52337965e-03  6.57237382e-06 
 1.52366105e-03 -4.40977742e-05 
 1.52391970e-03 -6.17033194e-05 
 1.52424593e-03 -1.13229809e-04 
 1.52458622e-03 -1.43102346e-04 
 1.52507711e-03 -2.38030796e-04 
 1.52589587e-03 -3.87617699e-04 
 1.52741958e-03 -1.35547852e-03 
 1.52858031e-03 -4.55247862e-05 
 1.52923316e-03  2.33607818e-03 
 1.52964757e-03  3.07332759e-05 
 1.52988550e-03 -1.95608940e-05 
 1.53009035e-03 -3.02944378e-05 
 1.53030729e-03 -6.91946020e-05 
 1.53054666e-03 -8.36672854e-05 
 1.53086734e-03 -1.31716325e-04 
 1.53121028e-03 -1.72380064e-04 
 1.53163743e-03 -2.41418427e-04 
 1.53211390e-03 -3.50503554e-04 
 1.53266231e-03 -4.71902062e-04 
 1.53325880e-03 -7.91006104e-04 
 1.53390618e-03 -1.15004469e-03 
 1.53455100e-03 -4.01296876e-03 
 1.53514193e-03 -2.07958564e-04 
 1.53554044e-03  8.43873760e-03 
 1.53572692e-03  8.46499805e-03 
 1.53580990e-03  8.42438332e-03 
 1.53589701e-03  8.19657161e-03 
 1.53598468e-03  7.78275038e-03 
 1.53611574e-03  7.09204429e-03 
 1.53623108e-03  2.93326080e-04 
 1.53628710e-03  9.83926126e-05 
 1.53635305e-03  2.16158954e-04 
 1.53641508e-03  6.91770364e-05 
 1.53649009e-03  1.52104262e-04 
 1.53657174e-03  3.61530649e-05 
 1.53666394e-03  9.88297956e-05 
 1.53677415e-03 -6.04702298e-08 
 1.53689811e-03  4.80590080e-05 
 1.53704875e-03 -4.06576008e-05 
 1.53722226e-03 -4.37740527e-06 
 1.53743145e-03 -8.95474918e-05 
 1.53767493e-03 -6.79109450e-05 
 1.53796572e-03 -1.59355772e-04 
 1.53832919e-03 -1.70498091e-04 
 1.53883771e-03 -3.05555770e-04 
 1.53957343e-03 -4.86675144e-04 
 1.54067028e-03 -1.02079495e-03 
 1.54238330e-03 -4.59943577e-03 
 1.54311906e-03 -1.96078336e-04 
 1.54323614e-03 -1.24990286e-04 
 1.54336794e-03 -1.87361375e-04 
 1.54353596e-03 -1.28221336e-04 
 1.54372661e-03 -1.96198903e-04 
 1.54396128e-03 -1.51180549e-04 
 1.54423170e-03 -2.36555257e-04 
 1.54457245e-03 -2.15285370e-04 
 1.54503128e-03 -3.57489407e-04 
 1.54569704e-03 -4.32340299e-04 
 1.54674561e-03 -9.84218711e-04 
 1.54806879e-03 -1.06477137e-03 
 1.55014180e-03 -1.66804576e-02 
 1.55120232e-03 -3.36446367e-04 
 1.55204340e-03 -1.92768838e-04 
 1.55283330e-03 -3.25380492e-04 
 1.55362788e-03 -4.29256938e-04 
 1.55521705e-03 -1.41344852e-03 
 1.55750968e-03  3.69574567e-05 
 1.55935852e-03  2.16754021e-04 
 1.56024716e-03 -4.08087822e-04 
 1.56080532e-03 -4.88724107e-05 
 1.56111737e-03 -5.81702566e-05 
 1.56144453e-03 -9.70705891e-05 
 1.56179064e-03 -1.06629657e-04 
 1.56248287e-03 -2.09894624e-04 
 1.56327829e-03 -3.17215898e-04 
 1.56461828e-03 -8.43779111e-04 
 1.56600429e-03 -1.35051951e-03 
 1.56741705e-03 -1.36150739e-02 
 1.56813389e-03 -3.92358969e-04 
 1.56853878e-03 -2.37942740e-04 
 1.56898275e-03 -3.08309391e-04 
 1.56945420e-03 -2.54697824e-04 
 1.57012570e-03 -4.61080400e-04 
 1.57105364e-03 -5.74183743e-04 
 1.57213421e-03 -1.54757986e-03 
 1.57392674e-03  7.37022486e-05 
 1.57463842e-03 -5.94333866e-03 
 1.57511474e-03 -4.81822450e-03 
 1.57556858e-03 -4.22024649e-03 
 1.57577023e-03 -1.86807756e-04 
 1.57592989e-03 -1.03945908e-04 
 1.57607890e-03 -1.62584010e-04 
 1.57623384e-03 -9.63276124e-05 
 1.57650476e-03 -1.66325388e-04 
 1.57684227e-03 -1.15941249e-04 
 1.57737430e-03 -2.44842191e-04 
 1.57826655e-03 -2.92842708e-04 
 1.57993946e-03 -1.25754224e-03 
 1.58265975e-03  6.65368329e-05 
 1.58488922e-03  6.86431088e-04 
 1.58618365e-03 -5.76406230e-05 
 1.58661586e-03 -8.58391190e-05 
 1.58703940e-03 -8.00248038e-05 
 1.58744594e-03 -1.73252528e-04 
 1.58802664e-03 -2.05716020e-04 
 1.58918804e-03 -5.44364820e-04 
 1.59151085e-03 -5.27121099e-05 
 1.59549731e-03 -1.42720588e-02 
 1.59915269e-03 -2.35384600e-04 
 1.60268953e-03 -3.52928446e-04 
 1.60311206e-03 -3.09016082e-04 
 1.60354479e-03 -3.07098046e-04 
 1.60412154e-03 -3.86499449e-04 
 1.60493801e-03 -4.56264291e-04 
 1.60538873e-03 -4.65771492e-04 
 1.60584492e-03 -4.69481073e-04 
 1.60637318e-03 -4.71386380e-04 
 1.60673746e-03 -3.14766093e-04 
 1.60703645e-03 -4.12386560e-04 
 1.60727810e-03 -1.45973948e-04 
 1.60745752e-03 -1.11515670e-04 
 1.60762494e-03 -1.03185669e-04 
 1.60782771e-03 -8.65728000e-05 
 1.60819626e-03 -1.18806993e-04 
 1.60868438e-03 -1.49949992e-04 
 1.60954084e-03 -3.14530912e-04 
 1.61111520e-03 -7.11280311e-04 
 1.61379851e-03 -3.50150778e-03 
 1.61523050e-03 -1.57263877e-05 
 1.61548860e-03 -4.30164300e-05 
 1.61573965e-03 -7.50996750e-05 
 1.61603978e-03 -1.03758232e-04 
 1.61650876e-03 -1.63767350e-04 
 1.61702145e-03 -2.43460293e-04 
 1.61775200e-03 -3.96641442e-04 
 1.61890704e-03 -8.80913465e-04 
 1.62054654e-03 -6.49859180e-05 
 1.62255428e-03  6.61242457e-03 
 1.62351864e-03  2.34313092e-05 
 1.62428727e-03 -1.05045346e-04 
 1.62499720e-03 -1.81778321e-04 
 1.62575835e-03 -3.32015515e-04 
 1.62728063e-03 -9.68950157e-04 
 1.62983003e-03 -7.90909799e-05 
 1.63440822e-03  2.50904847e-03 
 1.63939668e-03 -2.14352620e-04 
 1.64290947e-03  4.24635661e-03 
 1.64468935e-03 -2.62883175e-05 
 1.64591188e-03 -1.66033067e-04 
 1.64704986e-03 -4.37690067e-04 
 1.64819782e-03 -8.74915043e-04 
 1.65049372e-03 -1.18994658e-02 
 1.65149572e-03 -2.60657333e-04 
 1.65231004e-03 -1.17354450e-04 
 1.65307204e-03 -2.48152785e-04 
 1.65379776e-03 -3.20362797e-04 
 1.65516342e-03 -8.92384757e-04 
 1.65789473e-03  1.24737562e-04 
 1.66335737e-03 -2.59831262e-03 
 1.66726544e-03 -2.30778923e-04 
 1.66742400e-03 -2.19030322e-04 
 1.66774110e-03 -1.94365605e-04 
 1.66799765e-03 -1.97677954e-04 
 1.66837723e-03 -2.18898283e-04 
 1.66873831e-03 -2.57353142e-04 
 1.66928542e-03 -3.44063182e-04 
 1.67005217e-03 -5.30780884e-04 
 1.67118910e-03 -1.07741332e-03 
 1.67261533e-03 -2.47479426e-03 
 1.67379343e-03 -1.08470087e-02 
 1.67438637e-03 -1.16346359e-02 
 1.67486644e-03 -1.18217029e-02 
 1.67532360e-03 -1.18831546e-02 
 1.67584297e-03 -1.19131970e-02 
 1.67621138e-03 -1.18899385e-02 
 1.67652876e-03 -1.18470137e-02 
 1.67679032e-03 -4.10985228e-04 
 1.67697617e-03 -1.83408175e-04 
 1.67714706e-03 -2.75361572e-04 
 1.67735622e-03 -1.18904150e-04 
 1.67774958e-03 -2.50794192e-04 
 1.67829454e-03 -1.35614966e-04 
 1.67932844e-03 -4.84976186e-04 
 1.68122986e-03 -1.01173204e-03 
 1.68435964e-03 -5.44341184e-03 
 1.68580446e-03  1.04248545e-04 
 1.68640100e-03 -1.06473042e-04 
 1.68692093e-03 -6.37967571e-05 
 1.68743365e-03 -2.60706484e-04 
 1.68845909e-03 -3.54330650e-04 
 1.69050997e-03 -2.26338300e-03 
 1.69394490e-03  4.11233036e-04 
 1.69964103e-03 -1.82164829e-02 
 1.70436482e-03 -3.85846254e-04 
 1.70456546e-03 -3.28251245e-04 
 1.70496674e-03 -2.19748987e-04 
 1.70527014e-03 -2.10292827e-04 
 1.70542481e-03 -2.18982848e-04 
 1.70562696e-03 -2.31550271e-04 
 1.70593005e-03 -2.63424540e-04 
 1.70628644e-03 -3.13672986e-04 
 1.70699924e-03 -4.64345445e-04 
 1.70841512e-03 -1.08928051e-03 
 1.71007248e-03 -6.63534777e-04 
 1.71117184e-03  9.97606029e-04 
 1.71179604e-03  1.06990747e-03 
 1.71242005e-03  1.07655793e-03 
 1.71302493e-03  1.08210196e-03 
 1.71348120e-03 -2.22241306e-04 
 1.71382980e-03 -3.04873565e-04 
 1.71412546e-03 -2.63173426e-04 
 1.71437283e-03 -2.53594825e-04 
 1.71461168e-03 -2.81501974e-04 
 1.71498055e-03 -3.27458753e-04 
 1.71556854e-03 -4.62929227e-04 
 1.71652232e-03 -7.46757402e-04 
 1.71841118e-03 -1.17778591e-02 
 1.72174544e-03 -1.53340691e-04 
 1.72611581e-03  1.38741517e-03 
 1.72793283e-03 -1.96987995e-04 
 1.72860364e-03 -9.96508659e-05 
 1.72924680e-03 -2.13286631e-04 
 1.72996945e-03 -2.80743117e-04 
 1.73120704e-03 -7.26731584e-04 
 1.73319196e-03 -1.60267121e-03 
 1.73333947e-03 -1.20350055e-03 
 1.73363449e-03 -1.98412702e-03 
 1.73380053e-03 -1.83977175e-03 
 1.73395815e-03 -1.86291665e-03 
 1.73418314e-03 -1.98206956e-03 
 1.73463312e-03 -2.39139328e-03 
 1.73551157e-03 -2.92863202e-03 
 1.73630057e-03 -3.01808906e-03 
 1.73705808e-03 -3.02776515e-03 
 1.73760919e-03 -1.76687069e-04 
 1.73781481e-03 -1.51849954e-04 
 1.73798749e-03 -1.66559537e-04 
 1.73816113e-03 -1.50749224e-04 
 1.73833903e-03 -1.78407676e-04 
 1.73859932e-03 -1.76461575e-04 
 1.73899248e-03 -2.40466695e-04 
 1.73958464e-03 -3.06955059e-04 
 1.74067171e-03 -6.47931941e-04 
 1.74269399e-03 -1.17946075e-03 
 1.74600472e-03 -8.58637098e-03 
 1.74734024e-03 -1.23091788e-04 
 1.74817102e-03 -1.55862451e-04 
 1.74896750e-03 -2.84335311e-04 
 1.74968809e-03 -4.25045768e-04 
 1.75065490e-03 -8.25892756e-04 
 1.75188436e-03 -1.81552060e-03 
 1.75331761e-03 -1.22889254e-02 
 1.75397535e-03 -3.51887183e-04 
 1.75446348e-03 -1.82730358e-04 
 1.75491191e-03 -2.58300053e-04 
 1.75537821e-03 -2.13132153e-04 
 1.75631082e-03 -4.74614096e-04 
 1.75808687e-03 -1.07005149e-03 
 1.76118660e-03 -7.49198353e-03 
 1.76243137e-03 -4.38378614e-05 
 1.76288141e-03 -1.16290566e-04 
 1.76331983e-03 -1.27183123e-04 
 1.76381970e-03 -2.32713527e-04 
 1.76481944e-03 -3.95531142e-04 
 1.76656335e-03 -1.40460044e-03 
 1.76699932e-03 -1.55871047e-03 
 1.76787128e-03 -7.78588229e-04 
 1.76833872e-03  6.09202639e-05 
 1.76884026e-03  7.43093374e-05 
 1.76931453e-03  7.66914179e-05 
 1.76975820e-03  8.50336201e-05 
 1.77064553e-03  8.20946410e-05 
 1.77130487e-03  8.44252965e-05 
 1.77184964e-03 -2.01386659e-04 
 1.77223030e-03 -2.42440850e-04 
 1.77258585e-03 -2.07474115e-04 
 1.77287645e-03 -2.10099378e-04 
 1.77315779e-03 -2.51347950e-04 
 1.77360457e-03 -3.05492737e-04 
 1.77438671e-03 -5.07837801e-04 
 1.77568286e-03 -1.03744635e-03 
 1.77645770e-03 -3.49401867e-03 
 1.77691779e-03 -4.72856264e-03 
 1.77737399e-03 -1.82552450e-04 
 1.77752833e-03 -1.31581503e-04 
 1.77768040e-03 -1.63258278e-04 
 1.77783118e-03 -1.24059662e-04 
 1.77809316e-03 -1.68050996e-04 
 1.77833172e-03 -1.42384822e-04 
 1.77866519e-03 -2.11215000e-04 
 1.77902872e-03 -2.11550657e-04 
 1.77944042e-03 -3.25118967e-04 
 1.77990812e-03 -3.68740597e-04 
 1.78038764e-03 -5.67575366e-04 
 1.78089929e-03 -6.79285228e-04 
 1.78136814e-03 -1.05634428e-03 
 1.78171068e-03 -1.18928676e-03 
 1.78203496e-03 -1.88392502e-03 
 1.78234788e-03 -2.04083423e-03 
 1.78264089e-03 -4.30403837e-03 
 1.78266017e-03 -3.83694207e-03 
 1.78269872e-03 -3.26944876e-03 
 1.78275246e-03 -3.23186959e-03 
 1.78281482e-03 -3.41321049e-03 
 1.78287720e-03 -3.06923401e-03 
 1.78300198e-03 -2.45883562e-03 
 1.78313354e-03 -2.92825533e-03 
 1.78326096e-03 -2.40675509e-03 
 1.78334756e-03 -2.20144576e-03 
 1.78343458e-03 -2.11413245e-03 
 1.78353501e-03 -2.07652473e-03 
 1.78373587e-03 -2.12183362e-03 
 1.78413758e-03 -2.45254422e-03 
 1.78494100e-03 -3.17001792e-03 
 1.78608887e-03 -3.38019539e-03 
 1.78702310e-03 -3.34382176e-03 
 1.78773667e-03 -2.01923511e-04 
 1.78827932e-03 -9.25479051e-05 
 1.78879124e-03 -1.34391754e-04 
 1.78925912e-03 -1.65439193e-04 
 1.78991992e-03 -2.94799154e-04 
 1.79085304e-03 -4.79034703e-04 
 1.79271927e-03 -1.77692857e-03 
 1.79639020e-03 -1.90960152e-06 
 1.79793107e-03 -4.54125922e-04 
 1.79878008e-03 -3.27346191e-03 
 1.79933296e-03 -1.11840281e-04 
 1.79944103e-03 -8.18344072e-05 
 1.79957941e-03 -1.09080771e-04 
 1.79973517e-03 -8.66625960e-05 
 1.79994563e-03 -1.25409365e-04 
 1.80019821e-03 -1.16190587e-04 
 1.80050564e-03 -1.74834598e-04 
 1.80087517e-03 -1.88107668e-04 
 1.80130441e-03 -2.91348622e-04 
 1.80178926e-03 -3.49457718e-04 
 1.80232071e-03 -5.47923409e-04 
 1.80288654e-03 -6.99244066e-04 
 1.80353218e-03 -1.24191046e-03 
 1.80434122e-03 -2.17384001e-03 
 1.80488119e-03 -1.16102290e-02 
 1.80520446e-03 -5.17108649e-04 
 1.80533626e-03 -3.35531678e-04 
 1.80547462e-03 -4.20806409e-04 
 1.80562313e-03 -2.79029066e-04 
 1.80585451e-03 -3.68320259e-04 
 1.80609351e-03 -2.53696008e-04 
 1.80641833e-03 -3.81472023e-04 
 1.80680403e-03 -3.05707508e-04 
 1.80726290e-03 -5.16479757e-04 
 1.80782243e-03 -5.06239563e-04 
 1.80845407e-03 -9.44943233e-04 
 1.80917708e-03 -1.13534519e-03 
 1.80994430e-03 -4.23144524e-03 
 1.81049013e-03 -1.10552073e-04 
 1.81080476e-03  3.32635193e-03 
 1.81099021e-03  3.50344619e-03 
 1.81111390e-03  3.47757702e-03 
 1.81122705e-03  2.86707337e-03 
 1.81133261e-03  2.00058592e-03 
 1.81144109e-03  1.37154500e-03 
 1.81151818e-03  4.24709102e-05 
 1.81156928e-03 -6.87075900e-06 
 1.81161564e-03  1.81471178e-05 
 1.81166378e-03 -1.56570457e-05 
 1.81171237e-03 -1.36427156e-06 
 1.81175952e-03 -2.48741260e-05 
 1.81181220e-03 -1.72573160e-05 
 1.81186786e-03 -3.57347078e-05 
 1.81193159e-03 -3.30698329e-05 
 1.81200540e-03 -4.94589570e-05 
 1.81209272e-03 -5.14019555e-05 
 1.81219931e-03 -6.82996637e-05 
 1.81233064e-03 -7.61833506e-05 
 1.81249486e-03 -9.68783315e-05 
 1.81270360e-03 -1.15875366e-04 
 1.81296702e-03 -1.47819823e-04 
 1.81330804e-03 -1.95272493e-04 
 1.81373698e-03 -2.61047314e-04 
 1.81429703e-03 -3.98589199e-04 
 1.81498982e-03 -5.80849147e-04 
 1.81588905e-03 -1.21491655e-03 
 1.81694912e-03 -3.48334890e-04 
 1.81816130e-03 -4.21015507e-03 
 1.81871711e-03 -2.47472045e-04 
 1.81905951e-03 -1.79048190e-04 
 1.81937458e-03 -2.69039897e-04 
 1.81969354e-03 -2.24288162e-04 
 1.82019154e-03 -3.88539355e-04 
 1.82074710e-03 -4.01076805e-04 
 1.82147799e-03 -8.05663757e-04 
 1.82249046e-03 -1.18340049e-03 
 1.82256419e-03 -1.44817109e-03 
 1.82271166e-03 -1.72747586e-03 
 1.82280440e-03 -1.94794441e-03 
 1.82288816e-03 -2.47152418e-03 
 1.82296061e-03 -1.80993766e-03 
 1.82302955e-03 -1.55205029e-03 
 1.82310302e-03 -2.36934198e-03 
 1.82319056e-03 -2.62201896e-03 
 1.82329215e-03 -3.25132872e-03 
 1.82345443e-03 -3.33701223e-03 
 1.82377899e-03 -2.81103383e-03 
 1.82407926e-03 -1.77851334e-03 
 1.82429449e-03 -1.64545108e-03 
 1.82449643e-03 -1.72015154e-03 
 1.82474708e-03 -1.87958754e-03 
 1.82524837e-03 -2.31149957e-03 
 1.82625096e-03 -2.68582002e-03 
 1.82635751e-03 -2.69734622e-03 
 1.82657062e-03 -2.71210657e-03 
 1.82699685e-03 -2.72736632e-03 
 1.82742850e-03 -2.73716765e-03 
 1.82773634e-03 -2.60078670e-03 
 1.82798997e-03 -2.58181130e-03 
 1.82819869e-03 -2.27403937e-04 
 1.82835278e-03 -1.42520619e-04 
 1.82849675e-03 -1.60318961e-04 
 1.82868141e-03 -1.06215382e-04 
 1.82896941e-03 -1.50637297e-04 
 1.82935583e-03 -1.36054193e-04 
 1.82998803e-03 -2.70544107e-04 
 1.83108644e-03 -4.20650149e-04 
 1.83297396e-03 -2.76991259e-03 
 1.83651481e-03  1.31118484e-05 
 1.84352277e-03 -3.50633025e-06 
 1.85230754e-03 -2.45899338e-04 
 1.86230754e-03 -1.86557161e-03 
 1.87230754e-03 -2.06034651e-04 
 1.88230754e-03 -5.79701587e-03 
 1.89230754e-03 -2.14081753e-04 
 1.90230754e-03 -4.30737346e-04 
 1.91230754e-03 -1.69821875e-04 
 1.92125957e-03 -1.11588774e-03 
 1.92690426e-03 -1.35922340e-04 
 1.92857711e-03 -2.75935249e-04 
 1.93011129e-03 -8.66386244e-04 
 1.93159895e-03 -7.09529908e-03 
 1.93240482e-03 -2.17340223e-04 
 1.93301673e-03 -1.53573007e-04 
 1.93358071e-03 -2.63029311e-04 
 1.93419080e-03 -2.95091915e-04 
 1.93541099e-03 -7.59716580e-04 
 1.93700409e-03 -1.84580202e-03 
 1.94019027e-03 -7.03517367e-03 
 1.94255649e-03  2.04304249e-05 
 1.94366269e-03 -2.06813437e-04 
 1.94474470e-03 -3.97036437e-04 
 1.94580358e-03 -8.93316104e-04 
 1.94792133e-03  8.35951219e-05 
 1.95215682e-03  8.57981141e-04 
 1.95441595e-03 -1.97055081e-04 
 1.95608840e-03 -2.75474294e-04 
 1.95767487e-03 -1.26687485e-03 
 1.95927100e-03 -3.55796590e-04 
 1.96246324e-03  1.63791694e-02 
 1.96389442e-03  1.38410644e-04 
 1.96498055e-03 -1.98714231e-04 
 1.96599564e-03 -3.91585942e-04 
 1.96694074e-03 -7.37134092e-04 
 1.96883095e-03 -6.83973994e-03 
 1.97194539e-03 -3.81524091e-04 
 1.97411749e-03  2.36892784e-02 
 1.97549674e-03  2.54347103e-04 
 1.97588302e-03  1.06165286e-04 
 1.97626187e-03  6.16451895e-05 
 1.97663602e-03 -5.56461185e-05 
 1.97738430e-03 -1.59234022e-04 
 1.97832040e-03 -4.24257592e-04 
 1.97993523e-03 -1.43734972e-03 
 1.98173199e-03 -1.66410379e-04 
 1.98339168e-03  1.03949831e-02 
 1.98419356e-03  3.82804325e-03 
 1.98503568e-03  1.54867268e-05 
 1.98557973e-03 -8.81023925e-05 
 1.98610062e-03 -1.35129560e-04 
 1.98664033e-03 -2.32167687e-04 
 1.98771974e-03 -4.77612337e-04 
 1.98987856e-03 -2.42234191e-03 
 1.99419620e-03 -1.45132984e-02 
 2.00031874e-03 -9.23729635e-05 
 2.00093096e-03 -1.18810498e-04 
 2.00215540e-03 -2.73463224e-04 
 2.00385989e-03 -8.43895471e-04 
 2.00507902e-03 -1.86523051e-03 
 2.00630619e-03 -1.55896838e-03 
 2.00694236e-03 -5.29429334e-04 
 2.00759485e-03 -6.92319120e-04 
 2.00828351e-03 -7.84638617e-04 
 2.00895841e-03 -8.09980632e-04 
 2.00967150e-03 -8.10332920e-04 
 2.01018031e-03 -2.28354950e-04 
 2.01052456e-03 -2.54163075e-04 
 2.01084512e-03 -2.33673652e-04 
 2.01110568e-03 -2.36673993e-04 
 2.01135664e-03 -2.80465266e-04 
 2.01174973e-03 -3.22968086e-04 
 2.01243268e-03 -5.08396579e-04 
 2.01352721e-03 -8.87636977e-04 
 2.01571628e-03 -1.81116751e-02 
 2.01902784e-03 -1.44958583e-04 
 2.02067677e-03  9.15118566e-03 
 2.02159689e-03 -2.95390835e-05 
 2.02262253e-03 -8.05815426e-05 
 2.02319220e-03 -1.18957104e-04 
 2.02374282e-03 -1.77132533e-04 
 2.02433128e-03 -2.69176729e-04 
 2.02526871e-03 -5.19562211e-04 
 2.02714358e-03 -1.83625598e-03 
 2.03076770e-03 -1.98658608e-02 
 2.03286252e-03 -2.85288362e-04 
 2.03390319e-03 -1.66038488e-04 
 2.03487443e-03 -4.06506891e-04 
 2.03577891e-03 -6.58586052e-04 
 2.03749186e-03 -2.90661630e-03 
 2.03985082e-03 -8.85483225e-06 
 2.04227747e-03  1.08453380e-03 
 2.04466390e-03 -1.61570459e-04 
 2.04672378e-03 -2.70020045e-04 
 2.04872898e-03 -2.55368023e-03 
 2.04957347e-03 -1.20658527e-04 
 2.05023177e-03 -1.42265474e-04 
 2.05086181e-03 -2.35921492e-04 
 2.05149080e-03 -3.23466049e-04 
 2.05219853e-03 -5.67657002e-04 
 2.05338185e-03 -1.07186006e-03 
 2.05457912e-03 -5.39909876e-03 
 2.05595424e-03 -1.17006187e-04 
 2.05691116e-03  9.66433076e-03 
 2.05737779e-03  5.57775689e-03 
 2.05790046e-03  9.31096364e-05 
 2.05814457e-03  2.09797331e-05 
 2.05840944e-03 -2.65051654e-05 
 2.05867461e-03 -7.19608785e-05 
 2.05914025e-03 -1.50262410e-04 
 2.05961214e-03 -2.27636494e-04 
 2.06029625e-03 -4.13102177e-04 
 2.06111527e-03 -6.58996768e-04 
 2.06230160e-03 -1.89632727e-03 
 2.06357518e-03 -7.48785923e-05 
 2.06447803e-03  6.42939007e-03 
 2.06489273e-03  3.93900614e-03 
 2.06539928e-03  7.20317191e-04 
 2.06580129e-03 -3.79748370e-05 
 2.06598077e-03 -5.66622425e-05 
 2.06612575e-03 -6.97052978e-05 
 2.06628925e-03 -8.74500318e-05 
 2.06654572e-03 -1.11921389e-04 
 2.06678004e-03 -1.37576709e-04 
 2.06710328e-03 -1.79489181e-04 
 2.06744344e-03 -2.27353309e-04 
 2.06782514e-03 -3.06499581e-04 
 2.06825172e-03 -3.93902646e-04 
 2.06868028e-03 -5.43929152e-04 
 2.06914107e-03 -6.87800591e-04 
 2.06956071e-03 -9.65127143e-04 
 2.07003742e-03 -1.23832431e-03 
 2.07051617e-03 -2.14841889e-03 
 2.07109929e-03 -1.95869160e-03 
 2.07144596e-03 -7.76314185e-03 
 2.07166979e-03 -7.83657723e-03 
 2.07187096e-03 -7.62977789e-03 
 2.07187349e-03 -7.62982880e-03 
 2.07187854e-03 -7.62887018e-03 
 2.07188865e-03 -7.62637979e-03 
 2.07190886e-03 -7.62039571e-03 
 2.07194927e-03 -7.60316314e-03 
 2.07200533e-03 -7.56889481e-03 
 2.07206402e-03 -4.93393936e-04 
 2.07210474e-03 -1.19014996e-04 
 2.07214282e-03 -3.49861558e-04 
 2.07218123e-03 -1.34967929e-04 
 2.07221740e-03 -2.71933817e-04 
 2.07225381e-03 -1.42101839e-04 
 2.07229289e-03 -2.19355620e-04 
 2.07233513e-03 -1.41162756e-04 
 2.07238424e-03 -1.91848115e-04 
 2.07244222e-03 -1.40846264e-04 
 2.07251328e-03 -1.79483177e-04 
 2.07260304e-03 -1.41958725e-04 
 2.07271774e-03 -1.77948200e-04 
 2.07286734e-03 -1.50979308e-04 
 2.07306493e-03 -1.96354386e-04 
 2.07332406e-03 -1.86830911e-04 
 2.07367432e-03 -2.68164305e-04 
 2.07412669e-03 -3.05992587e-04 
 2.07474882e-03 -5.15225112e-04 
 2.07552584e-03 -7.25627191e-04 
 2.07671583e-03 -1.97928460e-03 
 2.07851414e-03 -1.00510754e-05 
 2.08073405e-03  3.90554694e-03 
 2.08224938e-03 -1.63667644e-04 
 2.08273886e-03 -1.64803669e-04 
 2.08321740e-03 -2.12197815e-04 
 2.08372450e-03 -2.93927807e-04 
 2.08473868e-03 -5.57014851e-04 
 2.08649482e-03 -1.77077796e-03 
 2.09000710e-03 -1.07839203e-02 
 2.09387082e-03 -8.63334476e-05 
 2.09734949e-03  2.38291892e-03 
 2.09783899e-03  2.49046823e-03 
 2.09825070e-03  2.80811550e-03 
 2.09884993e-03  3.52717100e-03 
 2.09952069e-03  3.90091254e-03 
 2.09993923e-03  3.96556189e-03 
 2.10036006e-03  3.99149703e-03 
 2.10086913e-03  4.00344451e-03 
 2.10121312e-03  4.23527216e-03 
 2.10149759e-03  4.30607335e-03 
 2.10172692e-03 -7.46062224e-05 
 2.10189731e-03 -1.16447008e-04 
 2.10205666e-03 -5.38779917e-05 
 2.10225142e-03 -1.02743100e-04 
 2.10259062e-03 -8.63517554e-05 
 2.10303879e-03 -1.95116307e-04 
 2.10380482e-03 -3.06819831e-04 
 2.10519719e-03 -7.68122890e-04 
 2.10549392e-03 -9.76843277e-04 
 2.10592957e-03 -1.34582296e-03 
 2.10631644e-03 -1.90087486e-03 
 2.10668815e-03 -2.34786985e-03 
 2.10724848e-03 -2.58583196e-03 
 2.10769897e-03 -6.00797182e-03 
 2.10804489e-03 -6.29819288e-03 
 2.10829171e-03 -6.97128155e-03 
 2.10856525e-03 -7.82687190e-03 
 2.10911234e-03 -9.11862044e-03 
 2.10968515e-03 -9.58728134e-03 
 2.11027294e-03 -9.71879487e-03 
 2.11089260e-03 -9.75626850e-03 
 2.11132988e-03 -1.00662449e-02 
 2.11161790e-03 -4.44011312e-04 
 2.11180184e-03 -2.33125997e-04 
 2.11199682e-03 -2.78015498e-04 
 2.11218307e-03 -1.46469711e-04 
 2.11251286e-03 -2.64426432e-04 
 2.11289326e-03 -1.79347432e-04 
 2.11355584e-03 -4.15685344e-04 
 2.11467785e-03 -5.61230741e-04 
 2.11685411e-03 -1.01381899e-02 
 2.12057255e-03  1.06966707e-04 
 2.12354466e-03 -1.19059390e-03 
 2.12490049e-03 -1.21444695e-04 
 2.12541379e-03 -1.29375576e-04 
 2.12590460e-03 -1.33726754e-04 
 2.12642231e-03 -2.73784878e-04 
 2.12697294e-03 -3.46459165e-04 
 2.12799527e-03 -7.64530538e-04 
 2.13003993e-03 -4.39017929e-03 
 2.13339562e-03 -5.55014180e-03 
 2.13360685e-03 -4.91746476e-03 
 2.13402931e-03 -4.47870705e-03 
 2.13487424e-03 -6.00149135e-03 
 2.13550107e-03 -6.63904387e-03 
 2.13585734e-03 -6.75443823e-03 
 2.13630938e-03 -6.81541614e-03 
 2.13679264e-03 -6.84213360e-03 
 2.13713208e-03 -6.74640726e-03 
 2.13740882e-03 -6.75425155e-04 
 2.13754555e-03 -5.16400893e-04 
 2.13767871e-03 -5.68263402e-04 
 2.13780406e-03 -4.50690506e-04 
 2.13793821e-03 -4.90793198e-04 
 2.13815445e-03 -3.85854539e-04 
 2.13838512e-03 -4.43799371e-04 
 2.13871443e-03 -4.32139493e-04 
 2.13919601e-03 -6.07763575e-04 
 2.13966923e-03 -6.76410407e-04 
 2.14039170e-03 -1.13879867e-03 
 2.14112796e-03 -1.56945759e-03 
 2.14212568e-03 -7.05141717e-03 
 2.14328742e-03 -1.90714148e-04 
 2.14388090e-03  9.09743278e-03 
 2.14425812e-03  7.10479597e-03 
 2.14459770e-03  5.03991578e-03 
 2.14485311e-03  1.35170991e-04 
 2.14498826e-03  3.33312902e-05 
 2.14513900e-03  4.96698051e-05 
 2.14527822e-03 -2.82972363e-05 
 2.14555406e-03 -2.40870043e-05 
 2.14590964e-03 -1.22469860e-04 
 2.14650428e-03 -1.64337185e-04 
 2.14759315e-03 -4.41812435e-04 
 2.14977089e-03 -2.80376801e-03 
 2.15387715e-03 -1.60670295e-04 
 2.16158425e-03  1.70233047e-03 
 2.16819883e-03 -2.95935465e-04 
 2.17166383e-03  1.85935837e-03 
 2.17381681e-03 -1.48090838e-04 
 2.17475376e-03 -1.34236334e-04 
 2.17566652e-03 -3.88298270e-04 
 2.17651383e-03 -5.49289772e-04 
 2.17820843e-03 -1.59026902e-03 
 2.17863208e-03 -3.53060877e-03 
 2.17947939e-03 -4.36542475e-03 
 2.17994502e-03 -2.84875281e-03 
 2.18039951e-03 -3.34827337e-03 
 2.18106400e-03 -4.18462430e-03 
 2.18182779e-03 -4.48828150e-03 
 2.18252510e-03 -4.54342802e-03 
 2.18319512e-03 -4.55394575e-03 
 2.18370565e-03 -5.58001265e-03 
 2.18408048e-03 -2.78207913e-04 
 2.18430111e-03 -1.48787954e-04 
 2.18449312e-03 -1.66341319e-04 
 2.18470334e-03 -1.12620867e-04 
 2.18506081e-03 -1.92957332e-04 
 2.18556266e-03 -1.89471630e-04 
 2.18646072e-03 -4.40999813e-04 
 2.18805401e-03 -9.67529635e-04 
 2.18910020e-03 -1.40747724e-02 
 2.18962204e-03 -1.19254758e-02 
 2.19024120e-03 -3.36326915e-04 
 2.19038119e-03 -2.50729752e-04 
 2.19053937e-03 -2.82888879e-04 
 2.19071246e-03 -2.18682670e-04 
 2.19098137e-03 -2.70175761e-04 
 2.19125996e-03 -2.32012654e-04 
 2.19165346e-03 -3.31999169e-04 
 2.19221844e-03 -3.71342557e-04 
 2.19308243e-03 -7.05537653e-04 
 2.19444944e-03 -1.46981897e-03 
 2.19520415e-03 -1.32292876e-02 
 2.19572043e-03 -4.37876609e-04 
 2.19598877e-03 -2.61766260e-04 
 2.19629507e-03 -3.17201395e-04 
 2.19662614e-03 -2.18330073e-04 
 2.19720752e-03 -3.75157720e-04 
 2.19773277e-03 -3.48665216e-04 
 2.19854401e-03 -7.33530659e-04 
 2.19938411e-03 -9.26134801e-04 
 2.20051957e-03 -3.68291015e-03 
 2.20204662e-03  5.33605689e-05 
 2.20364371e-03  3.22040388e-03 
 2.20434706e-03  3.49747221e-03 
 2.20492510e-03  3.33364805e-05 
 2.20526144e-03 -3.30324300e-05 
 2.20562082e-03 -9.24664753e-05 
 2.20598943e-03 -1.33419890e-04 
 2.20672664e-03 -2.83273796e-04 
 2.20762775e-03 -4.85382841e-04 
 2.20937029e-03 -1.97888338e-03 
 2.21194810e-03 -2.11524310e-05 
 2.21546120e-03  1.71067528e-03 
 2.21727165e-03 -1.97930639e-04 
 2.21782297e-03 -1.38021809e-04 
 2.21830304e-03 -1.84754158e-04 
 2.21877827e-03 -2.59084127e-04 
 2.21972874e-03 -4.87267629e-04 
 2.22143125e-03 -1.50514811e-03 
 2.22181117e-03 -2.52152004e-03 
 2.22257101e-03 -3.39076712e-03 
 2.22309859e-03 -5.11224146e-03 
 2.22354110e-03 -5.37530560e-03 
 2.22385035e-03 -6.13954813e-03 
 2.22419146e-03 -6.98569754e-03 
 2.22487369e-03 -7.86411805e-03 
 2.22534699e-03 -8.02428296e-03 
 2.22581856e-03 -8.08490833e-03 
 2.22638368e-03 -8.10858062e-03 
 2.22677541e-03 -8.12634031e-03 
 2.22707040e-03 -4.44552638e-04 
 2.22723369e-03 -2.66492346e-04 
 2.22739839e-03 -2.99082042e-04 
 2.22755928e-03 -1.74596640e-04 
 2.22776081e-03 -2.36345517e-04 
 2.22806020e-03 -1.72467101e-04 
 2.22845471e-03 -2.95932851e-04 
 2.22908851e-03 -3.05319308e-04 
 2.23013438e-03 -7.53423076e-04 
 2.23201869e-03 -2.20812240e-03 
 2.23396455e-03 -9.52179821e-03 
 2.23481791e-03 -7.72826873e-05 
 2.23525761e-03 -1.37126605e-04 
 2.23568639e-03 -1.68393215e-04 
 2.23608696e-03 -2.45145577e-04 
 2.23688811e-03 -4.05829361e-04 
 2.23806737e-03 -8.48160239e-04 
 2.23875193e-03  6.09973742e-04 
 2.23914941e-03 -1.23945202e-04 
 2.23937638e-03 -1.25852611e-04 
 2.23958141e-03 -1.37845842e-04 
 2.23981199e-03 -1.50050834e-04 
 2.24027315e-03 -2.04038436e-04 
 2.24092918e-03 -2.93847117e-04 
 2.24217018e-03 -7.12888880e-04 
 2.24465218e-03 -2.75812337e-05 
 2.24760473e-03  1.49950608e-03 
 2.24885815e-03 -1.60715539e-04 
 2.24985296e-03 -2.09787141e-04 
 2.25076444e-03 -4.01197703e-04 
 2.25164341e-03 -6.93954630e-04 
 2.25340134e-03 -2.63519366e-03 
 2.25446463e-03 -1.00206739e-02 
 2.25512659e-03 -2.77629506e-04 
 2.25551217e-03 -1.57879859e-04 
 2.25587612e-03 -2.12827659e-04 
 2.25626447e-03 -1.80287164e-04 
 2.25696750e-03 -3.45359228e-04 
 2.25787224e-03 -4.80503132e-04 
 2.25963760e-03 -1.93542712e-03 
 2.26248700e-03  8.82999340e-05 
 2.26374470e-03 -7.42555167e-03 
 2.26444814e-03 -7.26014092e-03 
 2.26509431e-03 -2.04199959e-04 
 2.26542938e-03 -1.42215442e-04 
 2.26573435e-03 -1.97928191e-04 
 2.26606267e-03 -1.76202812e-04 
 2.26671932e-03 -3.23563600e-04 
 2.26741696e-03 -4.13751764e-04 
 2.26866705e-03 -1.04443016e-03 
 2.26989573e-03 -2.20803698e-03 
 2.27091547e-03 -2.02333473e-02 
 2.27142110e-03 -1.90995247e-02 
 2.27190211e-03 -6.97311812e-04 
 2.27214330e-03 -4.83363904e-04 
 2.27237170e-03 -5.13628611e-04 
 2.27260320e-03 -3.39886225e-04 
 2.27306620e-03 -4.44978312e-04 
 2.27371845e-03 -3.72875190e-04 
 2.27501485e-03 -9.42347612e-04 
 2.27704525e-03 -1.89987736e-03 
 2.28110605e-03 -1.73762491e-02 
 2.28262550e-03 -1.70165185e-04 
 2.28320461e-03 -2.25342170e-04 
 2.28374198e-03 -2.16797166e-04 
 2.28436030e-03 -3.95143576e-04 
 2.28559694e-03 -7.15636040e-04 
 2.28761567e-03 -3.48371851e-03 
 2.28932120e-03  4.63344673e-03 
 2.29022244e-03  8.49399938e-05 
 2.29069771e-03 -4.20063438e-05 
 2.29115542e-03 -1.06285600e-04 
 2.29160538e-03 -1.74699700e-04 
 2.29250529e-03 -3.65008664e-04 
 2.29380736e-03 -8.21774099e-04 
 2.29482492e-03 -3.60488700e-03 
 2.29533914e-03 -5.16831365e-03 
 2.29588065e-03 -1.92673243e-04 
 2.29614023e-03 -1.35808033e-04 
 2.29638127e-03 -1.73078409e-04 
 2.29661549e-03 -1.50920905e-04 
 2.29708392e-03 -2.32707576e-04 
 2.29791745e-03 -3.31741614e-04 
 2.29958452e-03 -1.06745835e-03 
 2.30291866e-03  7.62550457e-05 
 2.30924154e-03 -1.47213704e-03 
 2.31596756e-03 -2.71616195e-04 
 2.32346202e-03 -8.60298325e-03 
 2.33177487e-03 -2.49590286e-04 
 2.33300491e-03 -2.67405835e-04 
 2.33490876e-03 -6.22642840e-04 
 2.33644004e-03 -2.05696556e-03 
 2.33815277e-03 -1.62281439e-03 
 2.33909609e-03  3.76328898e-04 
 2.34000650e-03  4.59071953e-04 
 2.34059377e-03  4.70584213e-04 
 2.34113474e-03  4.68315858e-04 
 2.34158082e-03  6.66389586e-04 
 2.34193541e-03 -4.18974790e-04 
 2.34211694e-03 -3.68676924e-04 
 2.34228847e-03 -3.07193437e-04 
 2.34245984e-03 -2.70387663e-04 
 2.34264013e-03 -2.40671627e-04 
 2.34296998e-03 -2.68976582e-04 
 2.34337902e-03 -3.16917065e-04 
 2.34387573e-03 -4.18516802e-04 
 2.34468669e-03 -6.84708971e-04 
 2.34599857e-03 -1.45538530e-03 
 2.34687078e-03 -3.10030449e-03 
 2.34736514e-03 -4.94665448e-03 
 2.34787300e-03 -1.99449112e-04 
 2.34801385e-03 -1.55926609e-04 
 2.34816786e-03 -1.88203837e-04 
 2.34831300e-03 -1.56767808e-04 
 2.34855664e-03 -2.02721645e-04 
 2.34878508e-03 -1.86826641e-04 
 2.34908885e-03 -2.58253774e-04 
 2.34943668e-03 -2.73279189e-04 
 2.34982572e-03 -3.96112566e-04 
 2.35031130e-03 -4.73618498e-04 
 2.35085500e-03 -7.35753029e-04 
 2.35151604e-03 -9.93789358e-04 
 2.35227128e-03 -1.99244140e-03 
 2.35312679e-03 -5.58026155e-04 
 2.35389259e-03 -6.85283403e-03 
 2.35432324e-03 -8.39738019e-03 
 2.35474591e-03 -3.06825221e-04 
 2.35484930e-03 -2.12344542e-04 
 2.35498127e-03 -2.61406535e-04 
 2.35512388e-03 -1.84295176e-04 
 2.35531596e-03 -2.43800682e-04 
 2.35553082e-03 -1.84372642e-04 
 2.35578956e-03 -2.66922289e-04 
 2.35609050e-03 -2.32620595e-04 
 2.35646033e-03 -3.61647240e-04 
 2.35696610e-03 -3.92632869e-04 
 2.35767922e-03 -7.18466938e-04 
 2.35866299e-03 -1.11659087e-03 
 2.36024003e-03 -1.72133714e-02 
 2.36228568e-03 -1.06872742e-04 
 2.36317134e-03  6.75822788e-03 
 2.36378513e-03 -6.32672353e-05 
 2.36409910e-03 -7.37183304e-05 
 2.36447294e-03 -5.81992034e-05 
 2.36484930e-03 -1.59475756e-04 
 2.36535737e-03 -2.15104016e-04 
 2.36622860e-03 -4.55476593e-04 
 2.36758392e-03 -1.18243592e-03 
 2.36903505e-03 -1.20836337e-04 
 2.37017353e-03  7.54698967e-03 
 2.37071657e-03  1.88172036e-03 
 2.37129393e-03 -5.10824475e-05 
 2.37155365e-03 -8.31995489e-05 
 2.37186898e-03 -1.26585360e-04 
 2.37215847e-03 -1.58294768e-04 
 2.37273745e-03 -2.66437730e-04 
 2.37328629e-03 -3.69516060e-04 
 2.37413452e-03 -6.96041437e-04 
 2.37509685e-03 -1.17969877e-03 
 2.37650360e-03 -1.65726425e-02 
 2.37784508e-03 -2.72796982e-04 
 2.37891703e-03  2.29425516e-02 
 2.37948829e-03  1.38611736e-02 
 2.38001673e-03  3.08332141e-04 
 2.38030305e-03  1.24739569e-04 
 2.38061848e-03  6.22210060e-05 
 2.38095871e-03 -5.31663681e-05 
 2.38163916e-03 -1.66231124e-04 
 2.38229528e-03 -3.51831251e-04 
 2.38340770e-03 -7.94857775e-04 
 2.38490712e-03 -2.41028559e-03 
 2.38700696e-03 -8.25946123e-03 
 2.38787713e-03 -2.22743423e-04 
 2.38818479e-03 -1.67799322e-04 
 2.38850541e-03 -2.47010245e-04 
 2.38886771e-03 -2.24999798e-04 
 2.38953798e-03 -4.19169929e-04 
 2.39018097e-03 -5.09824610e-04 
 2.39114953e-03 -1.09319372e-03 
 2.39234747e-03 -1.71041186e-03 
 2.39343645e-03 -1.87346940e-02 
 2.39382219e-03 -1.66989031e-02 
 2.39412031e-03 -1.50192743e-02 
 2.39443541e-03 -5.17296402e-04 
 2.39464003e-03 -2.66826185e-04 
 2.39482450e-03 -3.76039751e-04 
 2.39503484e-03 -2.05152058e-04 
 2.39544432e-03 -3.58697879e-04 
 2.39597368e-03 -2.45615870e-04 
 2.39695967e-03 -6.79838577e-04 
 2.39872991e-03 -1.39261510e-03 
 2.40227040e-03 -7.80086959e-03 
 2.40455097e-03  1.12139739e-04 
 2.40526860e-03 -1.66219410e-04 
 2.40594611e-03 -1.66428818e-04 
 2.40664945e-03 -4.93114036e-04 
 2.40805615e-03 -9.30763147e-04 
 2.40913470e-03 -3.04211947e-02 
 2.40968089e-03 -2.74721431e-02 
 2.41031497e-03 -6.99924776e-04 
 2.41087274e-03 -2.73544166e-04 
 2.41140113e-03 -4.05586284e-04 
 2.41193114e-03 -3.11882506e-04 
 2.41299117e-03 -7.71629543e-04 
 2.41511122e-03 -2.05143330e-03 
 2.41892971e-03 -5.50672397e-02 
 2.42221623e-03 -6.93246621e-04 
 2.42535916e-03 -7.11514303e-04 
 2.42583142e-03 -5.45043658e-04 
 2.42619358e-03 -4.90983399e-04 
 2.42673928e-03 -5.94218809e-04 
 2.42763688e-03 -7.49520134e-04 
 2.42813041e-03 -7.70883510e-04 
 2.42863829e-03 -7.78752209e-04 
 2.42919366e-03 -7.82132473e-04 
 2.42958946e-03 -5.48354013e-04 
 2.42991055e-03 -1.59844438e-03 
 2.43017435e-03 -1.81721015e-04 
 2.43036725e-03 -1.18789598e-04 
 2.43054625e-03 -1.35133226e-04 
 2.43076659e-03 -1.05749544e-04 
 2.43118920e-03 -1.82377703e-04 
 2.43176173e-03 -2.19875495e-04 
 2.43284462e-03 -5.71356110e-04 
 2.43485570e-03 -1.69927087e-03 
 2.43823000e-03 -5.28147330e-03 
 2.44069998e-03  4.21931490e-05 
 2.44177516e-03 -2.59644727e-04 
 2.44282862e-03 -4.75024983e-04 
 2.44393499e-03 -1.12108436e-03 
 2.44614772e-03  2.31458411e-05 
 2.44758418e-03  4.61858294e-04 
 2.44839840e-03 -1.30025319e-03 
 2.44920183e-03 -1.17035950e-04 
 2.44976775e-03 -1.48959319e-04 
 2.45031459e-03 -2.42521577e-04 
 2.45090298e-03 -3.32271483e-04 
 2.45207977e-03 -7.67326022e-04 
 2.45440763e-03 -6.46429164e-04 
 2.45855267e-03 -2.41299410e-02 
 2.46420872e-03 -1.86782407e-04 
 2.46469312e-03 -1.92133700e-04 
 2.46566191e-03 -2.98807493e-04 
 2.46701520e-03 -7.09861444e-04 
 2.46808075e-03 -1.42397796e-03 
 2.46932111e-03 -4.59707886e-03 
 2.47054530e-03 -1.22826341e-02 
 2.47113024e-03 -1.54625149e-02 
 2.47151930e-03 -1.73356147e-02 
 2.47189762e-03 -1.82724712e-02 
 2.47232851e-03 -1.87007383e-02 
 2.47273232e-03 -1.88561876e-02 
 2.47322190e-03 -1.89361636e-02 
 2.47355741e-03 -1.88935642e-02 
 2.47385055e-03 -1.90279509e-02 
 2.47409105e-03 -7.27365634e-04 
 2.47426673e-03 -3.35055197e-04 
 2.47442996e-03 -4.91746302e-04 
 2.47463696e-03 -2.01092029e-04 
 2.47499905e-03 -4.14534054e-04 
 2.47549469e-03 -1.87526382e-04 
 2.47638880e-03 -6.76006043e-04 
 2.47801121e-03 -9.85739295e-04 
 2.48071653e-03 -6.94273784e-03 
 2.48207422e-03  2.05726994e-04 
 2.48244794e-03 -7.84660253e-05 
 2.48275964e-03  2.77449916e-05 
 2.48306615e-03 -2.08043521e-04 
 2.48367918e-03 -1.56748610e-04 
 2.48469344e-03 -7.01441373e-04 
 2.48637802e-03 -1.74224209e-03 
 2.48974719e-03 -4.77158294e-02 
 2.49130510e-03 -8.19750436e-04 
 2.49222289e-03 -3.74274476e-04 
 2.49305176e-03 -5.14113035e-04 
 2.49381640e-03 -7.80861673e-04 
 2.49534568e-03 -2.08645299e-03 
 2.49837416e-03 -1.85766730e-04 
 2.50288948e-03  1.03519714e-02 
 2.50499351e-03 -9.00940551e-05 
 2.50666579e-03 -4.69990163e-04 
 2.50821926e-03 -5.23972485e-03 
 2.50900010e-03 -1.85439618e-04 
 2.50945396e-03 -1.72069948e-04 
 2.50987390e-03 -2.42608593e-04 
 2.51032468e-03 -2.88388020e-04 
 2.51096288e-03 -4.95449151e-04 
 2.51188204e-03 -8.05228487e-04 
 2.51345536e-03 -2.65147760e-03 
 2.51565743e-03  6.07280270e-06 
 2.51893340e-03  4.11182189e-03 
 2.52041857e-03 -2.33006542e-04 
 2.52084250e-03 -2.22590763e-04 
 2.52115566e-03 -2.58513100e-04 
 2.52149811e-03 -3.26577930e-04 
 2.52218301e-03 -4.96945500e-04 
 2.52286369e-03 -7.70703883e-04 
 2.52408073e-03 -1.68811880e-03 
 2.52573891e-03 -2.15243847e-04 
 2.52736805e-03  1.48222140e-02 
 2.52819327e-03  1.75873301e-04 
 2.52869389e-03 -7.92662434e-05 
 2.52917030e-03 -1.39972583e-04 
 2.52967818e-03 -3.21407617e-04 
 2.53037456e-03 -5.07669804e-04 
 2.53119821e-03 -9.23621718e-04 
 2.53224782e-03 -2.02416434e-03 
 2.53332758e-03 -8.58972276e-04 
 2.53470986e-03 -9.21882707e-03 
 2.53532048e-03 -5.08815711e-04 
 2.53582259e-03 -3.39385552e-04 
 2.53628555e-03 -5.80971453e-04 
 2.53678188e-03 -5.10631797e-04 
 2.53772939e-03 -1.20925831e-03 
 2.53887340e-03 -1.77315080e-03 
 2.54080129e-03 -9.70330921e-03 
 2.54175041e-03  3.62183906e-05 
 2.54199537e-03 -8.54942881e-05 
 2.54220070e-03 -7.72476522e-05 
 2.54240372e-03 -1.76669219e-04 
 2.54280975e-03 -2.11685297e-04 
 2.54362181e-03 -5.07307439e-04 
 2.54524594e-03 -1.39693399e-03 
 2.54686132e-03 -3.55454940e-03 
 2.54775882e-03 -6.13332248e-03 
 2.54843412e-03 -2.31073734e-04 
 2.54889725e-03 -1.78413748e-04 
 2.54932123e-03 -2.59776241e-04 
 2.54983445e-03 -3.06017950e-04 
 2.55086090e-03 -6.84963121e-04 
 2.55261387e-03 -1.84304623e-03 
 2.55366125e-03 -1.72034436e-02 
 2.55422348e-03 -1.71155895e-02 
 2.55484509e-03 -5.10942456e-04 
 2.55505601e-03 -3.61316311e-04 
 2.55525428e-03 -4.09362920e-04 
 2.55544547e-03 -3.18307916e-04 
 2.55582785e-03 -4.20481985e-04 
 2.55639172e-03 -4.28086967e-04 
 2.55748081e-03 -9.37838609e-04 
 2.55957972e-03 -2.69158134e-03 
 2.56377755e-03 -2.94389824e-02 
 2.56718302e-03 -2.67281873e-04 
 2.56731931e-03 -2.72500588e-04 
 2.56759190e-03 -2.72033690e-04 
 2.56813707e-03 -3.27666488e-04 
 2.56898600e-03 -5.35823229e-04 
 2.56992021e-03 -9.45989189e-04 
 2.57121964e-03 -2.22232763e-03 
 2.57269544e-03 -1.12944142e-03 
 2.57355493e-03  1.58659877e-03 
 2.57417087e-03  1.86757463e-03 
 2.57468152e-03  1.93100416e-03 
 2.57517096e-03  1.95386497e-03 
 2.57572110e-03  1.95205470e-03 
 2.57611884e-03  1.67707524e-03 
 2.57644596e-03 -3.08187790e-04 
 2.57662455e-03 -2.46481377e-04 
 2.57678878e-03 -1.87834536e-04 
 2.57696740e-03 -1.72521229e-04 
 2.57717400e-03 -1.68073517e-04 
 2.57750504e-03 -2.39445941e-04 
 2.57795029e-03 -3.25073350e-04 
 2.57870286e-03 -5.52511999e-04 
 2.57991937e-03 -1.28420398e-03 
 2.58229370e-03 -8.37426085e-05 
 2.58380844e-03  3.54188850e-03 
 2.58463989e-03 -3.92786417e-03 
 2.58546717e-03 -2.02628847e-04 
 2.58607502e-03 -2.16453321e-04 
 2.58666017e-03 -3.32893311e-04 
 2.58730955e-03 -4.76188221e-04 
 2.58834459e-03 -9.75816635e-04 
 2.59041467e-03 -4.32914817e-03 
 2.59150988e-03 -2.61942538e-02 
 2.59214229e-03 -7.33306181e-04 
 2.59254320e-03 -3.78012522e-04 
 2.59293477e-03 -4.95243662e-04 
 2.59329968e-03 -3.54382677e-04 
 2.59402951e-03 -6.96611005e-04 
 2.59501411e-03 -8.71319271e-04 
 2.59690778e-03 -5.21774405e-03 
 2.60019736e-03  2.08444835e-04 
 2.60198648e-03 -3.89683370e-03 
 2.60280367e-03  1.90043166e-03 
 2.60353732e-03 -1.70839591e-05 
 2.60392351e-03 -7.10020881e-05 
 2.60436625e-03 -2.00206842e-04 
 2.60480623e-03 -2.53689759e-04 
 2.60568619e-03 -5.89489174e-04 
 2.60660387e-03 -9.55291493e-04 
 2.60843925e-03 -4.48855372e-03 
 2.61083983e-03  9.30325811e-06 
 2.61346497e-03  2.16186621e-03 
 2.61464646e-03 -2.61944592e-04 
 2.61533562e-03 -2.08258931e-04 
 2.61596258e-03 -3.28376722e-04 
 2.61657132e-03 -5.13257020e-04 
 2.61778882e-03 -1.18381657e-03 
 2.61987235e-03 -9.51410250e-05 
 2.62071070e-03  6.16286129e-03 
 2.62152002e-03  2.24428818e-07 
 2.62189818e-03 -1.10819641e-04 
 2.62235597e-03 -1.79516816e-04 
 2.62282543e-03 -2.95429956e-04 
 2.62355200e-03 -5.08255025e-04 
 2.62430391e-03 -8.10049717e-04 
 2.62535491e-03 -1.77624845e-03 
 2.62639145e-03 -3.52087031e-03 
 2.62766007e-03 -1.66421600e-02 
 2.62819545e-03 -6.67952782e-04 
 2.62850172e-03 -4.47398829e-04 
 2.62878503e-03 -6.33842029e-04 
 2.62908921e-03 -4.82317871e-04 
 2.62949756e-03 -7.84737757e-04 
 2.62994532e-03 -7.12816875e-04 
 2.63047503e-03 -1.25596244e-03 
 2.63113633e-03 -1.36091973e-03 
 2.63189440e-03 -3.16779635e-03 
 2.63284002e-03 -3.47840122e-04 
 2.63333535e-03 -4.71786858e-03 
 2.63353204e-03 -6.05656936e-03 
 2.63367266e-03 -7.73790054e-03 
 2.63381585e-03 -8.47711906e-03 
 2.63410223e-03 -8.81272505e-03 
 2.63437369e-03 -9.26868089e-03 
 2.63468584e-03 -3.46384277e-04 
 2.63482640e-03 -2.18744317e-04 
 2.63498901e-03 -2.95615978e-04 
 2.63516064e-03 -2.01714376e-04 
 2.63543988e-03 -3.07335040e-04 
 2.63572535e-03 -2.41988215e-04 
 2.63614774e-03 -4.19477744e-04 
 2.63663238e-03 -4.27503013e-04 
 2.63728630e-03 -8.13175970e-04 
 2.63806415e-03 -1.06108320e-03 
 2.63907890e-03 -2.63659564e-03 
 2.64033077e-03  7.28985271e-05 
 2.64114173e-03 -5.50624798e-03 
 2.64173795e-03 -6.32170234e-03 
 2.64231288e-03 -2.63616701e-04 
 2.64251245e-03 -2.13353934e-04 
 2.64273498e-03 -2.64063035e-04 
 2.64295136e-03 -2.32289344e-04 
 2.64338412e-03 -3.43274754e-04 
 2.64386978e-03 -3.90901383e-04 
 2.64468263e-03 -7.43134257e-04 
 2.64567033e-03 -1.21056287e-03 
 2.64727437e-03 -4.99726059e-03 
 2.64890618e-03 -6.21731226e-05 
 2.65047711e-03  6.48924860e-03 
 2.65120028e-03  1.44403232e-03 
 2.65227771e-03 -6.36780503e-05 
 2.65282848e-03 -1.58502091e-04 
 2.65335054e-03 -2.70271219e-04 
 2.65384649e-03 -3.75805719e-04 
 2.65483839e-03 -7.76386653e-04 
 2.65682219e-03 -3.65792244e-03 
 2.65731814e-03 -5.59832730e-03 
 2.65831004e-03 -6.94101859e-03 
 2.65885764e-03 -5.85556166e-03 
 2.65939150e-03 -7.27426508e-03 
 2.66000122e-03 -8.45210437e-03 
 2.66055698e-03 -8.78579197e-03 
 2.66111862e-03 -8.88343764e-03 
 2.66173635e-03 -8.91545157e-03 
 2.66218667e-03 -9.41631283e-03 
 2.66254916e-03 -5.23570467e-04 
 2.66275154e-03 -3.04832543e-04 
 2.66293399e-03 -3.17452188e-04 
 2.66313289e-03 -2.00992659e-04 
 2.66338626e-03 -3.02612962e-04 
 2.66376061e-03 -2.70039587e-04 
 2.66430862e-03 -4.95274721e-04 
 2.66522345e-03 -7.01723971e-04 
 2.66684262e-03 -2.53963113e-03 
 2.66996711e-03  1.00443029e-04 
 2.67113056e-03 -8.13906283e-03 
 2.67184354e-03 -7.68179386e-03 
 2.67267036e-03 -2.02343860e-04 
 2.67292405e-03 -1.74777714e-04 
 2.67316669e-03 -2.38802154e-04 
 2.67339700e-03 -2.26509098e-04 
 2.67385761e-03 -3.64568548e-04 
 2.67461943e-03 -5.28115250e-04 
 2.67596551e-03 -1.37581767e-03 
 2.67865767e-03  1.08903791e-04 
 2.67980437e-03 -7.18708686e-03 
 2.68048674e-03 -3.16198289e-04 
 2.68089425e-03 -2.29250883e-04 
 2.68129231e-03 -3.24855849e-04 
 2.68172105e-03 -3.36577365e-04 
 2.68250829e-03 -6.45797203e-04 
 2.68344371e-03 -9.72550430e-04 
 2.68515019e-03 -4.90564289e-03 
 2.68786734e-03 -3.63051461e-05 
 2.68928627e-03  8.41739517e-05 
 2.68985879e-03 -4.23155923e-03 
 2.69061891e-03 -1.58204650e-04 
 2.69099117e-03 -1.68794130e-04 
 2.69137264e-03 -2.65438414e-04 
 2.69182621e-03 -3.19510408e-04 
 2.69264002e-03 -6.38067155e-04 
 2.69346633e-03 -9.60618390e-04 
 2.69487758e-03 -3.02663335e-03 
 2.69676508e-03 -7.15468622e-06 
 2.69917101e-03  5.27344831e-03 
 2.70018901e-03 -1.63844545e-04 
 2.70080792e-03 -2.30946416e-04 
 2.70136936e-03 -3.57343441e-04 
 2.70190408e-03 -5.13336572e-04 
 2.70297353e-03 -1.06464038e-03 
 2.70475348e-03 -3.31910473e-03 
 2.70588766e-03 -1.11894800e-02 
 2.70662079e-03 -1.25011323e-02 
 2.70729952e-03 -4.01902510e-04 
 2.70765185e-03 -2.86401419e-04 
 2.70796933e-03 -3.39400826e-04 
 2.70830293e-03 -3.19476073e-04 
 2.70897014e-03 -5.18638048e-04 
 2.71008210e-03 -8.95994495e-04 
 2.71177434e-03 -3.18081346e-03 
 2.71299012e-03 -1.43434190e-05 
 2.71394785e-03  3.89990590e-04 
 2.71460610e-03 -1.20295350e-04 
 2.71493286e-03 -1.45914768e-04 
 2.71521027e-03 -1.88905188e-04 
 2.71551917e-03 -2.31598302e-04 
 2.71613697e-03 -3.76623456e-04 
 2.71672692e-03 -5.37752490e-04 
 2.71782121e-03 -1.16284563e-03 
 2.71941878e-03 -2.66162326e-03 
 2.72074272e-03 -1.66050703e-02 
 2.72135463e-03 -6.14468002e-04 
 2.72170270e-03 -4.16922340e-04 
 2.72209207e-03 -5.97573084e-04 
 2.72245843e-03 -4.87310829e-04 
 2.72319116e-03 -9.31588500e-04 
 2.72422433e-03 -1.23213229e-03 
 2.72603437e-03 -2.01540234e-02 
 2.72928105e-03  2.77585134e-05 
 2.73076598e-03 -3.34554431e-03 
 2.73160635e-03 -6.65386081e-03 
 2.73227438e-03 -2.31947233e-04 
 2.73246020e-03 -1.80203929e-04 
 2.73262384e-03 -2.32344599e-04 
 2.73281872e-03 -1.96850397e-04 
 2.73311397e-03 -2.92843951e-04 
 2.73339843e-03 -2.86230257e-04 
 2.73378221e-03 -4.40530781e-04 
 2.73419210e-03 -4.95018193e-04 
 2.73465273e-03 -7.61649147e-04 
 2.73518604e-03 -9.40319433e-04 
 2.73581798e-03 -1.57006888e-03 
 2.73665379e-03 -2.55274422e-03 
 2.73777058e-03 -2.96090206e-02 
 2.73885033e-03 -6.35764607e-04 
 2.73935993e-03  1.71570981e-02 
 2.73972676e-03  1.63651636e-02 
 2.74002040e-03  3.47719142e-04 
 2.74015296e-03  1.25220641e-04 
 2.74028189e-03  2.12908760e-04 
 2.74043105e-03 -2.33222448e-06 
 2.74063855e-03  6.54249125e-05 
 2.74089767e-03 -1.50949374e-04 
 2.74125336e-03 -1.10767940e-04 
 2.74177738e-03 -3.96066913e-04 
 2.74258300e-03 -5.84982833e-04 
 2.74391658e-03 -1.57728381e-03 
 2.74486671e-03  1.44959454e-03 
 2.74532532e-03 -7.84145559e-03 
 2.74588748e-03 -2.84391848e-04 
 2.74603211e-03 -2.49619385e-04 
 2.74617603e-03 -2.80076367e-04 
 2.74632888e-03 -2.60990384e-04 
 2.74657043e-03 -3.13242062e-04 
 2.74688969e-03 -3.33141171e-04 
 2.74738790e-03 -4.86656046e-04 
 2.74825632e-03 -7.56035158e-04 
 2.74995263e-03 -2.56715290e-03 
 2.75334527e-03 -1.92790318e-05 
 2.75622055e-03  6.50873292e-04 
 2.75849220e-03 -3.36239929e-04 
 2.76002599e-03 -3.56350667e-04 
 2.76143746e-03 -1.22140486e-03 
 2.76314471e-03 -3.78012446e-03 
 2.76598065e-03 -2.87422511e-02 
 2.76925691e-03 -3.16710777e-04 
 2.77236963e-03  3.03748287e-04 
 2.77374904e-03 -1.12684328e-02 
 2.77468631e-03 -4.29714378e-04 
 2.77507856e-03 -2.28029223e-04 
 2.77536508e-03 -2.52127091e-04 
 2.77562657e-03 -2.32655943e-04 
 2.77589545e-03 -3.20970739e-04 
 2.77643321e-03 -3.98259186e-04 
 2.77701114e-03 -6.54107809e-04 
 2.77788627e-03 -1.01689556e-03 
 2.77915567e-03 -2.74032092e-03 
 2.78059599e-03 -2.90678707e-05 
 2.78195756e-03  3.94056597e-03 
 2.78277672e-03 -9.80046910e-04 
 2.78339708e-03 -1.31618758e-04 
 2.78367898e-03 -1.39715717e-04 
 2.78396790e-03 -2.03039819e-04 
 2.78427556e-03 -2.19733266e-04 
 2.78489088e-03 -3.87677509e-04 
 2.78577771e-03 -6.46575681e-04 
 2.78744151e-03 -2.04318492e-03 
 2.78947711e-03  5.39849556e-05 
 2.79045036e-03 -2.11930453e-03 
 2.79090721e-03 -1.47960693e-04 
 2.79114416e-03 -1.37735487e-04 
 2.79137418e-03 -1.94480936e-04 
 2.79160128e-03 -2.03572379e-04 
 2.79190248e-03 -2.83910636e-04 
 2.79237128e-03 -3.59237876e-04 
 2.79302469e-03 -6.22975656e-04 
 2.79410169e-03 -1.09599636e-03 
 2.79607949e-03 -1.41036457e-02 
 2.79922242e-03 -1.40467724e-04 
 2.80106837e-03 -1.22639044e-03 
 2.80268231e-03 -5.54074802e-04 
 2.80319444e-03 -3.27045757e-04 
 2.80373646e-03 -4.40074095e-04 
 2.80429620e-03 -5.09453264e-04 
 2.80486790e-03 -8.31768686e-04 
 2.80581206e-03 -1.28897540e-03 
 2.80765991e-03 -9.12129237e-03 
 2.81042211e-03 -7.94913392e-05 
 2.81234591e-03  5.39559046e-03 
 2.81338047e-03 -1.89242905e-04 
 2.81355159e-03 -1.59289121e-04 
 2.81376598e-03 -1.16031507e-04 
 2.81402399e-03 -1.46459898e-04 
 2.81432452e-03 -2.09494692e-04 
 2.81464066e-03 -2.87543025e-04 
 2.81501275e-03 -3.94127803e-04 
 2.81547772e-03 -5.48946292e-04 
 2.81606878e-03 -8.49236063e-04 
 2.81690613e-03 -1.37982929e-03 
 2.81815233e-03 -5.22536062e-03 
 2.82002556e-03 -2.39900542e-04 
 2.82191261e-03  1.22446746e-02 
 2.82317362e-03 -1.48016724e-04 
 2.82353160e-03 -1.06788153e-04 
 2.82400111e-03 -2.06371166e-04 
 2.82449556e-03 -3.16638337e-04 
 2.82529065e-03 -6.20013850e-04 
 2.82622876e-03 -1.07135658e-03 
 2.82764741e-03 -3.73787570e-03 
 2.82939513e-03 -1.08659618e-04 
 2.83042207e-03  8.60342062e-03 
 2.83108186e-03  3.46387109e-03 
 2.83172917e-03  1.05478388e-05 
 2.83197451e-03 -5.46607915e-05 
 2.83228756e-03 -1.29511184e-04 
 2.83257264e-03 -1.76927348e-04 
 2.83314280e-03 -3.25708171e-04 
 2.83389373e-03 -5.45411587e-04 
 2.83533382e-03 -1.48270056e-03 
 2.83762172e-03 -1.42542725e-05 
 2.83971722e-03  3.64767851e-03 
 2.84095339e-03 -1.75218490e-04 
 2.84134192e-03 -2.02930133e-04 
 2.84172261e-03 -2.54035094e-04 
 2.84209184e-03 -3.26880093e-04 
 2.84283030e-03 -5.39864254e-04 
 2.84374408e-03 -9.37227242e-04 
 2.84536807e-03 -3.25395089e-03 
 2.84790777e-03 -1.53033929e-04 
 2.84896588e-03  1.19028810e-02 
 2.84961858e-03  4.62900109e-03 
 2.85032996e-03  3.85627638e-05 
 2.85097016e-03 -1.59962905e-04 
 2.85155660e-03 -3.40905517e-04 
 2.85213791e-03 -5.14130991e-04 
 2.85330054e-03 -1.20157642e-03 
 2.85562580e-03 -4.95640204e-04 
 2.85944553e-03 -1.73936098e-02 
 2.86336778e-03 -2.44354967e-04 
 2.86719064e-03  3.31710838e-03 
 2.86738251e-03  3.35871650e-03 
 2.86776624e-03  3.69783349e-03 
 2.86841088e-03  4.73301169e-03 
 2.86904605e-03  5.24428500e-03 
 2.86938468e-03  5.33132553e-03 
 2.86984268e-03  5.38076923e-03 
 2.87032263e-03  5.40039750e-03 
 2.87066152e-03  5.74945100e-03 
 2.87093751e-03 -9.69197949e-04 
 2.87107326e-03 -9.53426552e-04 
 2.87120572e-03 -8.18555811e-04 
 2.87133046e-03 -8.35972476e-04 
 2.87146403e-03 -7.12632357e-04 
 2.87167941e-03 -7.22556390e-04 
 2.87190822e-03 -6.47046055e-04 
 2.87223481e-03 -8.16786960e-04 
 2.87271338e-03 -9.51566746e-04 
 2.87317822e-03 -1.27369219e-03 
 2.87390104e-03 -1.89225625e-03 
 2.87467823e-03 -3.01252597e-03 
 2.87577566e-03 -2.36496969e-02 
 2.87709756e-03 -8.40961570e-04 
 2.87777146e-03  4.48605947e-02 
 2.87818162e-03  3.33753075e-02 
 2.87856746e-03  8.90152255e-04 
 2.87878639e-03  4.20057378e-04 
 2.87898787e-03  4.11422673e-04 
 2.87922385e-03  9.16007192e-05 
 2.87968908e-03  3.45839897e-05 
 2.88030920e-03 -3.63743030e-04 
 2.88125081e-03 -6.81614856e-04 
 2.88313403e-03 -3.43309263e-03 
 2.88417656e-03 -8.89886797e-03 
 2.88472754e-03 -1.78967579e-02 
 2.88537999e-03 -4.88777783e-04 
 2.88554948e-03 -4.09479197e-04 
 2.88571141e-03 -4.34620259e-04 
 2.88588141e-03 -3.93662167e-04 
 2.88615541e-03 -4.54815596e-04 
 2.88649007e-03 -4.70644673e-04 
 2.88701102e-03 -6.70741181e-04 
 2.88778287e-03 -9.58310831e-04 
 2.88914723e-03 -2.43451572e-03 
 2.89155776e-03 -8.94046242e-06 
 2.89297387e-03  1.74499735e-03 
 2.89377619e-03 -2.92071264e-03 
 2.89458852e-03 -1.93223514e-04 
 2.89507568e-03 -2.31324467e-04 
 2.89556482e-03 -3.42311728e-04 
 2.89617419e-03 -4.83545423e-04 
 2.89699221e-03 -8.87340896e-04 
 2.89862825e-03 -2.43968970e-03 
 2.89966129e-03 -7.68326049e-03 
 2.90172735e-03 -4.96345870e-04 
 2.90296512e-03  1.37946344e-02 
 2.90380433e-03 -2.67828440e-05 
 2.90413552e-03 -6.09222395e-05 
 2.90456357e-03 -8.04369189e-05 
 2.90496354e-03 -2.57032053e-04 
 2.90564582e-03 -4.05093492e-04 
 2.90648005e-03 -8.26044421e-04 
 2.90776793e-03 -1.92179617e-03 
 2.90921315e-03 -1.21690116e-03 
 2.91029674e-03  7.22230294e-05 
 2.91085269e-03 -3.85048437e-03 
 2.91146916e-03 -1.75071135e-04 
 2.91169377e-03 -1.64463801e-04 
 2.91196912e-03 -2.32652161e-04 
 2.91224198e-03 -2.54815714e-04 
 2.91278769e-03 -4.18914798e-04 
 2.91338783e-03 -5.84166419e-04 
 2.91444224e-03 -1.24467543e-03 
 2.91572865e-03 -2.73607902e-03 
 2.91660385e-03 -1.57371725e-02 
 2.91704697e-03 -6.52109730e-04 
 2.91727669e-03 -4.28865586e-04 
 2.91750180e-03 -5.29325664e-04 
 2.91773425e-03 -3.87217811e-04 
 2.91819916e-03 -5.86318226e-04 
 2.91885882e-03 -6.02920797e-04 
 2.92005525e-03 -1.56030277e-03 
 2.92241691e-03  1.60729221e-04 
 2.92714024e-03  2.86994123e-03 
 2.92924924e-03 -3.65691395e-04 
 2.93011061e-03 -4.79099337e-04 
 2.93083525e-03 -5.84716324e-04 
 2.93154608e-03 -1.08950060e-03 
 2.93296775e-03 -2.23583484e-03 
 2.93375899e-03 -2.73684706e-02 
 2.93421488e-03 -9.24544847e-04 
 2.93446661e-03 -5.40856069e-04 
 2.93473891e-03 -6.94388201e-04 
 2.93505010e-03 -4.44553968e-04 
 2.93549768e-03 -7.48610398e-04 
 2.93594849e-03 -6.04962061e-04 
 2.93655878e-03 -1.19098786e-03 
 2.93738655e-03 -1.36793864e-03 
 2.93855867e-03 -4.37010690e-03 
 2.94037292e-03  2.25868701e-04 
 2.94294214e-03  5.45979998e-03 
 2.94416130e-03 -1.57473381e-04 
 2.94482309e-03 -3.33741525e-04 
 2.94541880e-03 -3.66334373e-04 
 2.94597986e-03 -7.07813236e-04 
 2.94710200e-03 -1.22365238e-03 
 2.94821746e-03 -2.92781282e-03 
 2.94849632e-03 -3.79316399e-03 
 2.94905405e-03 -6.77294778e-03 
 2.94966597e-03 -5.68802161e-03 
 2.95008768e-03 -1.33223036e-03 
 2.95048119e-03 -1.47068713e-03 
 2.95101149e-03 -1.83404757e-03 
 2.95149613e-03 -2.06130591e-03 
 2.95231677e-03 -2.17475648e-03 
 2.95302702e-03 -2.18537420e-03 
 2.95356390e-03 -2.98809494e-04 
 2.95390066e-03 -3.23828579e-04 
 2.95420496e-03 -3.36963853e-04 
 2.95446943e-03 -3.70241109e-04 
 2.95475040e-03 -4.59113833e-04 
 2.95511059e-03 -5.36532607e-04 
 2.95565141e-03 -8.05522184e-04 
 2.95662458e-03 -1.34152424e-03 
 2.95847330e-03 -7.66249151e-03 
 2.96202732e-03 -1.25719692e-04 
 2.96506718e-03  1.01820338e-03 
 2.96662079e-03 -4.43063536e-04 
 2.96753314e-03 -3.23519646e-04 
 2.96835644e-03 -6.44940087e-04 
 2.96918425e-03 -9.97343129e-04 
 2.97028833e-03 -2.28852999e-03 
 2.97162297e-03 -2.92972678e-03 
 2.97282591e-03 -2.79887669e-02 
 2.97336496e-03 -2.76481725e-02 
 2.97381729e-03 -8.30197768e-04 
 2.97406482e-03 -4.67486994e-04 
 2.97429740e-03 -5.80746071e-04 
 2.97454096e-03 -3.66588377e-04 
 2.97502808e-03 -5.95356245e-04 
 2.97564401e-03 -5.32693283e-04 
 2.97652344e-03 -1.19776937e-03 
 2.97827820e-03 -2.91512489e-03 
 2.97944151e-03 -5.74948252e-02 
 2.98017762e-03 -1.52448261e-03 
 2.98060685e-03 -7.63115123e-04 
 2.98106405e-03 -9.16691980e-04 
 2.98151757e-03 -6.39484409e-04 
 2.98242460e-03 -1.31464746e-03 
 2.98330415e-03 -1.46351885e-03 
 2.98473165e-03 -5.90854007e-03 
 2.98656281e-03  3.60473547e-04 
 2.98839346e-03  3.20511184e-03 
 2.98913863e-03  1.69484944e-02 
 2.98971867e-03  3.40954977e-04 
 2.99006668e-03  7.28780988e-05 
 2.99033265e-03 -2.15527076e-05 
 2.99059699e-03 -1.20849158e-04 
 2.99112569e-03 -2.95456201e-04 
 2.99199384e-03 -6.34952667e-04 
 2.99369331e-03 -2.24843955e-03 
 2.99705475e-03 -6.30893869e-05 
 2.99893106e-03  1.12744912e-03 
 2.99999139e-03 -8.38157268e-03 
 3.00105784e-03 -2.66635434e-04 
 3.00208821e-03 -3.41552575e-04 
 3.00326871e-03 -8.81587797e-04 
 3.00447850e-03 -1.88734966e-03 
 3.00689808e-03 -2.46216667e-02 
 3.00750298e-03 -3.13605504e-02 
 3.00803007e-03 -3.44081065e-02 
 3.00854003e-03 -3.53437827e-02 
 3.00903411e-03 -3.56409843e-02 
 3.00961054e-03 -3.57572759e-02 
 3.01002065e-03 -3.55110100e-02 
 3.01036304e-03 -1.19809992e-03 
 3.01055049e-03 -6.04436951e-04 
 3.01072262e-03 -7.79889815e-04 
 3.01090964e-03 -3.65409710e-04 
 3.01114325e-03 -6.37232785e-04 
 3.01150395e-03 -3.48593752e-04 
 3.01199833e-03 -7.89898632e-04 
 3.01283635e-03 -7.39770726e-04 
 3.01383060e-03 -2.01358645e-03 
 3.01534742e-03 -4.38282702e-03 
 3.01634086e-03 -6.25284477e-02 
 3.01685337e-03 -4.00745762e-02 
 3.01744052e-03 -9.12855517e-04 
 3.01757915e-03 -6.50791149e-04 
 3.01773505e-03 -7.49293518e-04 
 3.01788107e-03 -5.53607945e-04 
 3.01811192e-03 -6.82713143e-04 
 3.01833408e-03 -5.35204216e-04 
 3.01861625e-03 -7.29119518e-04 
 3.01893720e-03 -6.49705006e-04 
 3.01928413e-03 -9.41618211e-04 
 3.01968948e-03 -9.54370504e-04 
 3.02010125e-03 -1.41304368e-03 
 3.02055262e-03 -1.55043964e-03 
 3.02097843e-03 -2.31692299e-03 
 3.02131418e-03 -2.49742953e-03 
 3.02157737e-03 -3.49371812e-03 
 3.02173684e-03 -3.52309089e-03 
 3.02189548e-03 -4.68086196e-03 
 3.02203200e-03 -3.28523282e-03 
 3.02216262e-03 -4.16403792e-03 
 3.02231801e-03 -6.29443814e-03 
 3.02247295e-03 -8.93368076e-03 
 3.02267080e-03 -4.38219746e-03 
 3.02288986e-03 -1.15948020e-02 
 3.02309498e-03 -1.86965436e-02 
 3.02323628e-03 -1.57850210e-02 
 3.02336780e-03 -1.49128304e-02 
 3.02353644e-03 -1.48729643e-02 
 3.02387372e-03 -1.64003592e-02 
 3.02454828e-03 -2.12023709e-02 
 3.02589740e-03 -2.39071019e-02 
 3.02672795e-03 -2.40240069e-02 
 3.02727906e-03 -5.56868832e-04 
 3.02759232e-03 -3.00625390e-04 
 3.02793698e-03 -4.92002787e-04 
 3.02828222e-03 -3.76007852e-04 
 3.02897272e-03 -7.90970971e-04 
 3.02968212e-03 -9.27800674e-04 
 3.03091742e-03 -2.51429764e-03 
 3.03267098e-03  2.73533994e-04 
 3.03349580e-03 -1.99728123e-02 
 3.03404317e-03 -1.85120846e-02 
 3.03455508e-03 -6.40671914e-04 
 3.03475378e-03 -4.36215606e-04 
 3.03494340e-03 -5.19288435e-04 
 3.03512822e-03 -3.98259221e-04 
 3.03549785e-03 -5.47852719e-04 
 3.03598072e-03 -5.33481228e-04 
 3.03682248e-03 -1.05283753e-03 
 3.03814308e-03 -1.95010152e-03 
 3.03894789e-03 -2.69395163e-02 
 3.03944585e-03 -9.26057530e-04 
 3.03971621e-03 -5.63015602e-04 
 3.04003610e-03 -6.99721876e-04 
 3.04036203e-03 -4.91230789e-04 
 3.04090219e-03 -8.38807795e-04 
 3.04140150e-03 -7.69783481e-04 
 3.04210437e-03 -1.52672648e-03 
 3.04283453e-03 -1.77624193e-03 
 3.04366033e-03 -4.21662584e-03 
 3.04451258e-03 -1.88648816e-03 
 3.04515649e-03 -3.45708910e-02 
 3.04545506e-03 -3.23607094e-02 
 3.04575511e-03 -2.86018953e-02 
 3.04604219e-03 -2.71616183e-02 
 3.04633209e-03 -9.65594291e-04 
 3.04652465e-03 -5.00875842e-04 
 3.04670119e-03 -7.14357937e-04 
 3.04690882e-03 -3.83755045e-04 
 3.04728342e-03 -6.76446104e-04 
 3.04776459e-03 -4.43116965e-04 
 3.04862365e-03 -1.16583589e-03 
 3.05009680e-03 -1.87448013e-03 
 3.05304309e-03 -1.61518691e-02 
 3.05442986e-03  5.10486181e-05 
 3.05491682e-03 -2.70719224e-04 
 3.05534448e-03 -2.10210967e-04 
 3.05577179e-03 -5.72189485e-04 
 3.05662640e-03 -7.68329568e-04 
 3.05833562e-03 -3.04766962e-03 
 3.06175406e-03  1.18831255e-03 
 3.06660042e-03 -5.04977557e-02 
 3.06967098e-03 -1.01815982e-03 
 3.07261634e-03 -6.99320786e-04 
 3.07530675e-03  9.67222794e-03 
 3.07775633e-03  2.61239753e-04 
 3.07900750e-03 -6.73278372e-04 
 3.08023296e-03 -1.63350695e-03 
 3.08148813e-03 -3.77740978e-03 
 3.08248072e-03 -2.10714888e-02 
 3.08301362e-03 -7.68790560e-04 
 3.08332266e-03 -4.82682320e-04 
 3.08367229e-03 -5.71916581e-04 
 3.08399664e-03 -4.52166016e-04 
 3.08460628e-03 -7.66227474e-04 
 3.08521430e-03 -8.42617304e-04 
 3.08612923e-03 -1.78461015e-03 
 3.08734578e-03 -3.21046715e-03 
 3.08813720e-03 -3.74774992e-02 
 3.08839028e-03 -3.57347061e-02 
 3.08858655e-03 -3.24750808e-02 
 3.08879850e-03 -3.09285179e-02 
 3.08903562e-03 -1.20161561e-03 
 3.08914238e-03 -6.79068837e-04 
 3.08926989e-03 -9.64077664e-04 
 3.08939624e-03 -5.31798971e-04 
 3.08958542e-03 -8.25028321e-04 
 3.08979612e-03 -4.48357040e-04 
 3.09006591e-03 -8.09755360e-04 
 3.09044191e-03 -5.16180627e-04 
 3.09095034e-03 -1.09284942e-03 
 3.09168573e-03 -1.04027961e-03 
 3.09264861e-03 -2.73351439e-03 
 3.09413900e-03 -3.17465938e-03 
 3.09545333e-03 -2.53314115e-02 
 3.09605572e-03 -1.55572567e-04 
 3.09638639e-03 -3.05347295e-04 
 3.09671253e-03 -3.42362081e-04 
 3.09705036e-03 -5.06862159e-04 
 3.09758498e-03 -7.06050564e-04 
 3.09808782e-03 -1.00283293e-03 
 3.09877840e-03 -1.62237450e-03 
 3.09973487e-03 -2.79760103e-03 
 3.09990072e-03 -3.42429691e-03 
 3.10015678e-03 -4.48670390e-03 
 3.10036603e-03 -3.74721592e-03 
 3.10057101e-03 -6.26810262e-03 
 3.10082970e-03 -8.74996983e-03 
 3.10107876e-03 -8.03083370e-03 
 3.10136758e-03 -1.12302201e-02 
 3.10156755e-03 -8.01765500e-03 
 3.10175170e-03 -7.53224540e-03 
 3.10200546e-03 -7.80920817e-03 
 3.10246416e-03 -9.34090895e-03 
 3.10331369e-03 -1.17270314e-02 
 3.10427978e-03 -1.22178398e-02 
 3.10521094e-03 -1.21488956e-02 
 3.10585997e-03 -6.22386398e-04 
 3.10629289e-03 -2.94490081e-04 
 3.10668444e-03 -3.65034023e-04 
 3.10704830e-03 -3.83275129e-04 
 3.10757438e-03 -6.30660178e-04 
 3.10846597e-03 -9.81442057e-04 
 3.11002980e-03 -3.09580105e-03 
 3.11315744e-03  5.91573028e-05 
 3.11490895e-03 -2.77322618e-03 
 3.11570056e-03 -6.12294630e-03 
 3.11644102e-03 -2.42947020e-04 
 3.11676594e-03 -2.29619674e-04 
 3.11703117e-03 -3.29705167e-04 
 3.11729333e-03 -3.26159713e-04 
 3.11781764e-03 -5.51807996e-04 
 3.11876303e-03 -9.14935103e-04 
 3.12048047e-03 -3.12242527e-03 
 3.12351454e-03  1.13398084e-04 
 3.12472706e-03 -7.77857476e-03 
 3.12549159e-03 -5.98218290e-04 
 3.12590143e-03 -3.39281096e-04 
 3.12608773e-03 -3.69365890e-04 
 3.12627040e-03 -3.58023253e-04 
 3.12645516e-03 -4.29063216e-04 
 3.12678937e-03 -4.74625359e-04 
 3.12715450e-03 -6.49286359e-04 
 3.12771391e-03 -8.45938734e-04 
 3.12844834e-03 -1.45946225e-03 
 3.12964495e-03 -2.82042646e-03 
 3.13041046e-03 -1.40745929e-02 
 3.13086209e-03 -1.64849466e-02 
 3.13128281e-03 -6.10579165e-04 
 3.13149040e-03 -4.02102393e-04 
 3.13169556e-03 -5.15711282e-04 
 3.13192267e-03 -3.72905596e-04 
 3.13235462e-03 -5.80241614e-04 
 3.13276008e-03 -5.25161404e-04 
 3.13342522e-03 -9.99928716e-04 
 3.13424521e-03 -1.30027819e-03 
 3.13553799e-03 -3.82023063e-03 
 3.13719668e-03  1.64489085e-04 
 3.13783452e-03 -1.01438743e-02 
 3.13824976e-03 -3.82560297e-04 
 3.13844988e-03 -2.64353361e-04 
 3.13859578e-03 -3.94036367e-04 
 3.13875787e-03 -3.22333350e-04 
 3.13890784e-03 -4.51877966e-04 
 3.13914362e-03 -4.14663337e-04 
 3.13940638e-03 -6.02564521e-04 
 3.13976371e-03 -6.27224085e-04 
 3.14026778e-03 -1.03207504e-03 
 3.14100042e-03 -1.36311868e-03 
 3.14199738e-03 -3.26009627e-03 
 3.14317412e-03 -4.68488713e-04 
 3.14379292e-03  9.66150753e-05 
 3.14414883e-03 -3.40066038e-03 
 3.14452989e-03 -6.94859793e-03 
 3.14474996e-03 -3.43068988e-04 
 3.14489894e-03 -2.31862091e-04 
 3.14503626e-03 -3.42857915e-04 
 3.14517040e-03 -2.48110927e-04 
 3.14537952e-03 -3.78470387e-04 
 3.14557110e-03 -3.03870420e-04 
 3.14582394e-03 -4.70901105e-04 
 3.14610354e-03 -4.27339617e-04 
 3.14641611e-03 -6.69895479e-04 
 3.14678717e-03 -6.80507755e-04 
 3.14718831e-03 -1.08428541e-03 
 3.14766103e-03 -1.18459056e-03 
 3.14816240e-03 -2.00299460e-03 
 3.14873766e-03 -2.32171643e-03 
 3.14931352e-03 -5.07211469e-03 
 3.14992695e-03 -1.68283561e-03 
 3.15029595e-03 -1.11617045e-02 
 3.15048238e-03 -1.13837340e-02 
 3.15064971e-03 -1.43330910e-02 
 3.15081098e-03 -1.71831455e-02 
 3.15108030e-03 -1.84610309e-02 
 3.15125745e-03 -7.79784372e-04 
 3.15137891e-03 -3.96715158e-04 
 3.15149052e-03 -6.46669546e-04 
 3.15160617e-03 -3.33514666e-04 
 3.15180494e-03 -5.81762869e-04 
 3.15204858e-03 -3.03840456e-04 
 3.15242394e-03 -6.45831611e-04 
 3.15305534e-03 -5.07251922e-04 
 3.15419896e-03 -1.63405925e-03 
 3.15644403e-03 -8.12385489e-04 
 3.16093417e-03 -8.02812290e-03 
 3.16527285e-03  2.61806514e-04 
 3.16806692e-03 -2.73870504e-02 
 3.17127336e-03  2.95570712e-04 
 3.17414344e-03 -4.35299023e-03 
 3.17585359e-03 -1.77010435e-04 
 3.17714308e-03 -5.95422146e-04 
 3.17834790e-03 -1.19680789e-03 
 3.17954163e-03 -3.04802802e-03 
 3.18105301e-03  6.94777220e-04 
 3.18276406e-03 -2.62115980e-02 
 3.18352882e-03 -8.10696238e-04 
 3.18409673e-03 -4.05694563e-04 
 3.18461420e-03 -5.97187625e-04 
 3.18512877e-03 -5.99533339e-04 
 3.18591464e-03 -1.16582276e-03 
 3.18733163e-03 -2.27347154e-03 
 3.18873973e-03 -1.82439242e-02 
 3.19060487e-03 -1.88248759e-04 
 3.19137560e-03  1.22111609e-02 
 3.19186002e-03 -8.51862744e-05 
 3.19209117e-03 -1.40505631e-04 
 3.19227452e-03 -5.66233622e-05 
 3.19245175e-03 -1.87100309e-04 
 3.19267733e-03 -1.93417535e-04 
 3.19299162e-03 -3.74633930e-04 
 3.19351679e-03 -5.47548449e-04 
 3.19440463e-03 -1.08676089e-03 
 3.19617232e-03 -4.65916611e-03 
 3.19796793e-03 -2.62990653e-04 
 3.19891492e-03  1.80297436e-02 
 3.19949564e-03  3.20054740e-03 
 3.20010137e-03 -3.42101079e-03 
 3.20049541e-03 -2.09898407e-04 
 3.20071823e-03 -1.95230621e-04 
 3.20093576e-03 -2.52951772e-04 
 3.20116486e-03 -2.63695549e-04 
 3.20150001e-03 -3.65307161e-04 
 3.20192279e-03 -4.48343779e-04 
 3.20250872e-03 -7.28265362e-04 
 3.20322874e-03 -1.06895624e-03 
 3.20426687e-03 -2.26509409e-03 
 3.20546072e-03 -4.54107926e-03 
 3.20641787e-03 -2.45810799e-02 
 3.20687790e-03 -2.47180048e-02 
 3.20735839e-03 -7.99236552e-04 
 3.20755967e-03 -5.29965145e-04 
 3.20776111e-03 -6.46501239e-04 
 3.20799258e-03 -4.63341921e-04 
 3.20838074e-03 -6.72810385e-04 
 3.20876958e-03 -5.85198717e-04 
 3.20938107e-03 -1.04940134e-03 
 3.21007758e-03 -1.24192483e-03 
 3.21103060e-03 -2.71088096e-03 
 3.21231049e-03 -5.70151242e-03 
 3.21309320e-03 -5.16991132e-02 
 3.21339666e-03 -4.75983002e-02 
 3.21360850e-03 -4.37153207e-02 
 3.21383894e-03 -4.19872064e-02 
 3.21398772e-03 -1.79830250e-03 
 3.21407859e-03 -8.17898253e-04 
 3.21416703e-03 -1.43906684e-03 
 3.21425300e-03 -6.52667891e-04 
 3.21436781e-03 -1.19157960e-03 
 3.21449118e-03 -5.18575215e-04 
 3.21463612e-03 -1.03259602e-03 
 3.21481825e-03 -4.38454385e-04 
 3.21503675e-03 -9.74120926e-04 
 3.21532652e-03 -4.49718283e-04 
 3.21571570e-03 -1.12278005e-03 
 3.21627620e-03 -7.55528774e-04 
 3.21714422e-03 -2.17602449e-03 
 3.21859069e-03 -3.71875974e-03 
 3.22074359e-03 -1.81163204e-02 
 3.22159828e-03  3.05838759e-04 
 3.22204946e-03 -2.27678560e-04 
 3.22244369e-03 -7.15198381e-05 
 3.22283259e-03 -5.44561150e-04 
 3.22361039e-03 -6.08541070e-04 
 3.22514808e-03 -2.44217211e-03 
 3.22822347e-03  7.26047180e-02 
 3.23126674e-03  1.14393973e-03 
 3.23346628e-03 -7.03887165e-03 
 3.23560468e-03 -8.26859429e-02 
 3.23652542e-03 -1.69034558e-03 
 3.23709002e-03 -5.68787320e-04 
 3.23755940e-03 -8.25149005e-04 
 3.23808643e-03 -6.10815865e-04 
 3.23873849e-03 -1.25327595e-03 
 3.23979156e-03 -1.62855824e-03 
 3.24118411e-03 -5.85349842e-03 
 3.24280283e-03  6.99744688e-04 
 3.24401096e-03 -4.97078441e-02 
 3.24464502e-03 -4.51722215e-02 
 3.24522609e-03 -1.28267559e-03 
 3.24547415e-03 -7.75805870e-04 
 3.24568163e-03 -8.82381546e-04 
 3.24588632e-03 -5.87052180e-04 
 3.24619509e-03 -8.08738411e-04 
 3.24664575e-03 -6.22388090e-04 
 3.24734211e-03 -1.17349751e-03 
 3.24839646e-03 -1.60706470e-03 
 3.24950374e-03 -4.01381847e-03 
 3.25171830e-03  7.93915474e-04 
 3.25317725e-03 -5.14321137e-02 
 3.25405087e-03 -1.39466234e-03 
 3.25444043e-03 -7.33079442e-04 
 3.25482122e-03 -8.42609498e-04 
 3.25522141e-03 -6.45186988e-04 
 3.25575780e-03 -1.03104696e-03 
 3.25643744e-03 -1.11447298e-03 
 3.25729905e-03 -2.24126912e-03 
 3.25827153e-03 -3.35847856e-03 
 3.25927741e-03 -2.31809571e-02 
 3.25987100e-03 -6.63394140e-04 
 3.26018478e-03  1.61245667e-02 
 3.26037356e-03  1.65989515e-02 
 3.26051224e-03  1.69126488e-02 
 3.26062302e-03  1.57190653e-02 
 3.26072924e-03  1.31162254e-02 
 3.26083606e-03  1.06793537e-02 
 3.26091929e-03  4.61108784e-04 
 3.26097079e-03  1.16135114e-04 
