0.000000e+00 0.000000e+00 
1.000000e-06 -3.739889e-07 
2.000000e-06 -1.286588e-06 
4.000000e-06 -4.080902e-06 
8.000000e-06 -1.348961e-05 
1.600000e-05 -3.722036e-05 
3.200000e-05 -8.687383e-05 
6.400000e-05 -1.858768e-04 
1.280000e-04 -3.840231e-04 
2.280000e-04 -6.935109e-04 
3.280000e-04 -1.003025e-03 
4.280000e-04 -1.312460e-03 
5.280000e-04 -1.621904e-03 
6.280000e-04 -1.931284e-03 
7.280000e-04 -2.240661e-03 
8.280000e-04 -2.549984e-03 
9.280000e-04 -2.859294e-03 
1.028000e-03 -3.168560e-03 
1.128000e-03 -3.477805e-03 
1.228000e-03 -3.787011e-03 
1.328000e-03 -4.096192e-03 
1.428000e-03 -4.405339e-03 
1.528000e-03 -4.714457e-03 
1.628000e-03 -5.023544e-03 
1.728000e-03 -5.332598e-03 
1.828000e-03 -5.641624e-03 
1.928000e-03 -5.950616e-03 
2.028000e-03 -6.259581e-03 
2.128000e-03 -6.568510e-03 
2.228000e-03 -6.877415e-03 
2.328000e-03 -7.186281e-03 
2.428000e-03 -7.495125e-03 
2.528000e-03 -7.803929e-03 
2.628000e-03 -8.112711e-03 
2.728000e-03 -8.421454e-03 
2.828000e-03 -8.730174e-03 
2.928000e-03 -9.038855e-03 
3.028000e-03 -9.347514e-03 
3.128000e-03 -9.656133e-03 
3.228000e-03 -9.964731e-03 
3.328000e-03 -1.027329e-02 
3.428000e-03 -1.058182e-02 
3.528000e-03 -1.089032e-02 
3.628000e-03 -1.119879e-02 
3.728000e-03 -1.150723e-02 
3.828000e-03 -1.181564e-02 
3.928000e-03 -1.212401e-02 
4.028000e-03 -1.243236e-02 
4.128000e-03 -1.274068e-02 
4.228000e-03 -1.304896e-02 
4.328000e-03 -1.335721e-02 
4.428000e-03 -1.366544e-02 
4.528000e-03 -1.397363e-02 
4.628000e-03 -1.428180e-02 
4.728000e-03 -1.458992e-02 
4.828000e-03 -1.489803e-02 
4.928000e-03 -1.520609e-02 
5.028000e-03 -1.551414e-02 
5.128000e-03 -1.582214e-02 
5.228000e-03 -1.613012e-02 
5.328000e-03 -1.643806e-02 
5.428000e-03 -1.674598e-02 
5.528000e-03 -1.705386e-02 
5.628000e-03 -1.736172e-02 
5.728000e-03 -1.766954e-02 
5.828000e-03 -1.797734e-02 
5.928000e-03 -1.828510e-02 
6.028000e-03 -1.859283e-02 
6.128000e-03 -1.890053e-02 
6.228000e-03 -1.920820e-02 
6.328000e-03 -1.951584e-02 
6.428000e-03 -1.982345e-02 
6.528000e-03 -2.013102e-02 
6.628000e-03 -2.043857e-02 
6.728000e-03 -2.074609e-02 
6.828000e-03 -2.105357e-02 
6.928000e-03 -2.136103e-02 
7.028000e-03 -2.166845e-02 
7.128000e-03 -2.197584e-02 
7.228000e-03 -2.228321e-02 
7.328000e-03 -2.259054e-02 
7.428000e-03 -2.289784e-02 
7.528000e-03 -2.320511e-02 
7.628000e-03 -2.351235e-02 
7.728000e-03 -2.381956e-02 
7.828000e-03 -2.412674e-02 
7.928000e-03 -2.443389e-02 
8.028000e-03 -2.474101e-02 
8.128000e-03 -2.504809e-02 
8.228000e-03 -2.535515e-02 
8.328000e-03 -2.566217e-02 
8.428000e-03 -2.596917e-02 
8.528000e-03 -2.627613e-02 
8.628000e-03 -2.658307e-02 
8.728000e-03 -2.688997e-02 
8.828000e-03 -2.719684e-02 
8.928000e-03 -2.750368e-02 
9.028000e-03 -2.781049e-02 
9.128000e-03 -2.811727e-02 
9.228000e-03 -2.842402e-02 
9.328000e-03 -2.873074e-02 
9.428000e-03 -2.903743e-02 
9.528000e-03 -2.934408e-02 
9.628000e-03 -2.965071e-02 
9.728000e-03 -2.995731e-02 
9.828000e-03 -3.026388e-02 
9.928000e-03 -3.057041e-02 
1.002800e-02 -3.087691e-02 
1.012800e-02 -3.118339e-02 
1.022800e-02 -3.148983e-02 
1.032800e-02 -3.179624e-02 
1.042800e-02 -3.210263e-02 
1.052800e-02 -3.240898e-02 
1.062800e-02 -3.271530e-02 
1.072800e-02 -3.302159e-02 
1.082800e-02 -3.332785e-02 
1.092800e-02 -3.363408e-02 
1.102800e-02 -3.394028e-02 
1.112800e-02 -3.424644e-02 
1.122800e-02 -3.455258e-02 
1.132800e-02 -3.485869e-02 
1.142800e-02 -3.516476e-02 
1.152800e-02 -3.547081e-02 
1.162800e-02 -3.577682e-02 
1.172800e-02 -3.608281e-02 
1.182800e-02 -3.638876e-02 
1.192800e-02 -3.669469e-02 
1.202800e-02 -3.700058e-02 
1.212800e-02 -3.730644e-02 
1.222800e-02 -3.761227e-02 
1.232800e-02 -3.791807e-02 
1.242800e-02 -3.822385e-02 
1.252800e-02 -3.852958e-02 
1.262800e-02 -3.883529e-02 
1.272800e-02 -3.914097e-02 
1.282800e-02 -3.944662e-02 
1.292800e-02 -3.975224e-02 
1.302800e-02 -4.005783e-02 
1.312800e-02 -4.036338e-02 
1.322800e-02 -4.066891e-02 
1.332800e-02 -4.097441e-02 
1.342800e-02 -4.127987e-02 
1.352800e-02 -4.158531e-02 
1.362800e-02 -4.189071e-02 
1.372800e-02 -4.219608e-02 
1.382800e-02 -4.250143e-02 
1.392800e-02 -4.280674e-02 
1.402800e-02 -4.311202e-02 
1.412800e-02 -4.341727e-02 
1.422800e-02 -4.372250e-02 
1.432800e-02 -4.402769e-02 
1.442800e-02 -4.433285e-02 
1.452800e-02 -4.463798e-02 
1.462800e-02 -4.494308e-02 
1.472800e-02 -4.524815e-02 
1.482800e-02 -4.555319e-02 
1.492800e-02 -4.585819e-02 
1.502800e-02 -4.616317e-02 
1.512800e-02 -4.646812e-02 
1.522800e-02 -4.677303e-02 
1.532800e-02 -4.707792e-02 
1.542800e-02 -4.738278e-02 
1.552800e-02 -4.768760e-02 
1.562800e-02 -4.799240e-02 
1.572800e-02 -4.829716e-02 
1.582800e-02 -4.860190e-02 
1.592800e-02 -4.890660e-02 
1.602800e-02 -4.921127e-02 
1.612800e-02 -4.951591e-02 
1.622800e-02 -4.982053e-02 
1.632800e-02 -5.012511e-02 
1.642800e-02 -5.042966e-02 
1.652800e-02 -5.073418e-02 
1.662800e-02 -5.103867e-02 
1.672800e-02 -5.134313e-02 
1.682800e-02 -5.164756e-02 
1.692800e-02 -5.195196e-02 
1.702800e-02 -5.225633e-02 
1.712800e-02 -5.256067e-02 
1.722800e-02 -5.286498e-02 
1.732800e-02 -5.316926e-02 
1.742800e-02 -5.347350e-02 
1.752800e-02 -5.377772e-02 
1.762800e-02 -5.408191e-02 
1.772800e-02 -5.438606e-02 
1.782800e-02 -5.469019e-02 
1.792800e-02 -5.499428e-02 
1.802800e-02 -5.529835e-02 
1.812800e-02 -5.560238e-02 
1.822800e-02 -5.590639e-02 
1.832800e-02 -5.621036e-02 
1.842800e-02 -5.651431e-02 
1.852800e-02 -5.681822e-02 
1.862800e-02 -5.712210e-02 
1.872800e-02 -5.742596e-02 
1.882800e-02 -5.772978e-02 
1.892800e-02 -5.803357e-02 
1.902800e-02 -5.833733e-02 
1.912800e-02 -5.864106e-02 
1.922800e-02 -5.894477e-02 
1.932800e-02 -5.924844e-02 
1.942800e-02 -5.955208e-02 
1.952800e-02 -5.985569e-02 
1.962800e-02 -6.015927e-02 
1.972800e-02 -6.046282e-02 
1.982800e-02 -6.076634e-02 
1.992800e-02 -6.106982e-02 
2.000000e-02 -6.128832e-02 
2.001000e-02 -6.129685e-02 
2.003000e-02 -6.130026e-02 
2.007000e-02 -6.129515e-02 
2.015000e-02 -6.129230e-02 
2.025000e-02 -6.128442e-02 
2.035000e-02 -6.127984e-02 
2.045000e-02 -6.127237e-02 
2.055000e-02 -6.126744e-02 
2.065000e-02 -6.126028e-02 
2.075000e-02 -6.125507e-02 
2.085000e-02 -6.124816e-02 
2.095000e-02 -6.124274e-02 
2.105000e-02 -6.123601e-02 
2.115000e-02 -6.123043e-02 
2.125000e-02 -6.122385e-02 
2.135000e-02 -6.121814e-02 
2.145000e-02 -6.121168e-02 
2.155000e-02 -6.120587e-02 
2.165000e-02 -6.119949e-02 
2.175000e-02 -6.119361e-02 
2.185000e-02 -6.118730e-02 
2.195000e-02 -6.118137e-02 
2.205000e-02 -6.117510e-02 
2.215000e-02 -6.116913e-02 
2.225000e-02 -6.116290e-02 
2.235000e-02 -6.115690e-02 
2.245000e-02 -6.115070e-02 
2.255000e-02 -6.114467e-02 
2.265000e-02 -6.113850e-02 
2.275000e-02 -6.113245e-02 
2.285000e-02 -6.112630e-02 
2.295000e-02 -6.112023e-02 
2.305000e-02 -6.111410e-02 
2.315000e-02 -6.110802e-02 
2.325000e-02 -6.110190e-02 
2.335000e-02 -6.109581e-02 
2.345000e-02 -6.108970e-02 
2.355000e-02 -6.108361e-02 
2.365000e-02 -6.107750e-02 
2.375000e-02 -6.107141e-02 
2.385000e-02 -6.106530e-02 
2.395000e-02 -6.105921e-02 
2.405000e-02 -6.105311e-02 
2.415000e-02 -6.104702e-02 
2.425000e-02 -6.104092e-02 
2.435000e-02 -6.103482e-02 
2.445000e-02 -6.102873e-02 
2.455000e-02 -6.102263e-02 
2.465000e-02 -6.101654e-02 
2.475000e-02 -6.101045e-02 
2.485000e-02 -6.100436e-02 
2.495000e-02 -6.099826e-02 
2.505000e-02 -6.099217e-02 
2.515000e-02 -6.098608e-02 
2.525000e-02 -6.097999e-02 
2.535000e-02 -6.097390e-02 
2.545000e-02 -6.096782e-02 
2.555000e-02 -6.096172e-02 
2.565000e-02 -6.095564e-02 
2.575000e-02 -6.094955e-02 
2.585000e-02 -6.094347e-02 
2.595000e-02 -6.093737e-02 
2.605000e-02 -6.093130e-02 
2.615000e-02 -6.092521e-02 
2.625000e-02 -6.091913e-02 
2.635000e-02 -6.091304e-02 
2.645000e-02 -6.090696e-02 
2.655000e-02 -6.090087e-02 
2.665000e-02 -6.089480e-02 
2.675000e-02 -6.088871e-02 
2.685000e-02 -6.088264e-02 
2.695000e-02 -6.087655e-02 
2.705000e-02 -6.087048e-02 
2.715000e-02 -6.086439e-02 
2.725000e-02 -6.085832e-02 
2.735000e-02 -6.085224e-02 
2.745000e-02 -6.084617e-02 
2.755000e-02 -6.084009e-02 
2.765000e-02 -6.083402e-02 
2.775000e-02 -6.082794e-02 
2.785000e-02 -6.082187e-02 
2.795000e-02 -6.081579e-02 
2.805000e-02 -6.080972e-02 
2.815000e-02 -6.080364e-02 
2.825000e-02 -6.079757e-02 
2.835000e-02 -6.079150e-02 
2.845000e-02 -6.078543e-02 
2.855000e-02 -6.077936e-02 
2.865000e-02 -6.077329e-02 
2.875000e-02 -6.076722e-02 
2.885000e-02 -6.076116e-02 
2.895000e-02 -6.075508e-02 
2.905000e-02 -6.074902e-02 
2.915000e-02 -6.074295e-02 
2.925000e-02 -6.073689e-02 
2.935000e-02 -6.073082e-02 
2.945000e-02 -6.072476e-02 
2.955000e-02 -6.071869e-02 
2.965000e-02 -6.071263e-02 
2.975000e-02 -6.070657e-02 
2.985000e-02 -6.070051e-02 
2.995000e-02 -6.069444e-02 
3.005000e-02 -6.068838e-02 
3.015000e-02 -6.068232e-02 
3.025000e-02 -6.067626e-02 
3.035000e-02 -6.067020e-02 
3.045000e-02 -6.066415e-02 
3.055000e-02 -6.065808e-02 
3.065000e-02 -6.065203e-02 
3.075000e-02 -6.064597e-02 
3.085000e-02 -6.063992e-02 
3.095000e-02 -6.063386e-02 
3.105000e-02 -6.062781e-02 
3.115000e-02 -6.062175e-02 
3.125000e-02 -6.061570e-02 
3.135000e-02 -6.060964e-02 
3.145000e-02 -6.060359e-02 
3.155000e-02 -6.059754e-02 
3.165000e-02 -6.059149e-02 
3.175000e-02 -6.058544e-02 
3.185000e-02 -6.057939e-02 
3.195000e-02 -6.057334e-02 
3.205000e-02 -6.056729e-02 
3.215000e-02 -6.056124e-02 
3.225000e-02 -6.055519e-02 
3.235000e-02 -6.054914e-02 
3.245000e-02 -6.054310e-02 
3.255000e-02 -6.053705e-02 
3.265000e-02 -6.053101e-02 
3.275000e-02 -6.052496e-02 
3.285000e-02 -6.051892e-02 
3.295000e-02 -6.051287e-02 
3.305000e-02 -6.050683e-02 
3.315000e-02 -6.050079e-02 
3.325000e-02 -6.049475e-02 
3.335000e-02 -6.048871e-02 
3.345000e-02 -6.048267e-02 
3.355000e-02 -6.047663e-02 
3.365000e-02 -6.047059e-02 
3.375000e-02 -6.046455e-02 
3.385000e-02 -6.045851e-02 
3.395000e-02 -6.045247e-02 
3.405000e-02 -6.044644e-02 
3.415000e-02 -6.044040e-02 
3.425000e-02 -6.043437e-02 
3.435000e-02 -6.042833e-02 
3.445000e-02 -6.042230e-02 
3.455000e-02 -6.041626e-02 
3.465000e-02 -6.041023e-02 
3.475000e-02 -6.040420e-02 
3.485000e-02 -6.039817e-02 
3.495000e-02 -6.039213e-02 
3.505000e-02 -6.038610e-02 
3.515000e-02 -6.038007e-02 
3.525000e-02 -6.037404e-02 
3.535000e-02 -6.036801e-02 
3.545000e-02 -6.036199e-02 
3.555000e-02 -6.035596e-02 
3.565000e-02 -6.034993e-02 
3.575000e-02 -6.034390e-02 
3.585000e-02 -6.033788e-02 
3.595000e-02 -6.033185e-02 
3.605000e-02 -6.032583e-02 
3.615000e-02 -6.031980e-02 
3.625000e-02 -6.031378e-02 
3.635000e-02 -6.030776e-02 
3.645000e-02 -6.030173e-02 
3.655000e-02 -6.029571e-02 
3.665000e-02 -6.028969e-02 
3.675000e-02 -6.028367e-02 
3.685000e-02 -6.027765e-02 
3.695000e-02 -6.027163e-02 
3.705000e-02 -6.026561e-02 
3.715000e-02 -6.025959e-02 
3.725000e-02 -6.025358e-02 
3.735000e-02 -6.024756e-02 
3.745000e-02 -6.024154e-02 
3.755000e-02 -6.023553e-02 
3.765000e-02 -6.022951e-02 
3.775000e-02 -6.022350e-02 
3.785000e-02 -6.021748e-02 
3.795000e-02 -6.021147e-02 
3.805000e-02 -6.020546e-02 
3.815000e-02 -6.019945e-02 
3.825000e-02 -6.019344e-02 
3.835000e-02 -6.018742e-02 
3.845000e-02 -6.018141e-02 
3.855000e-02 -6.017540e-02 
3.865000e-02 -6.016940e-02 
3.875000e-02 -6.016339e-02 
3.885000e-02 -6.015738e-02 
3.895000e-02 -6.015137e-02 
3.905000e-02 -6.014536e-02 
3.915000e-02 -6.013936e-02 
3.925000e-02 -6.013335e-02 
3.935000e-02 -6.012735e-02 
3.945000e-02 -6.012134e-02 
3.955000e-02 -6.011534e-02 
3.965000e-02 -6.010934e-02 
3.975000e-02 -6.010333e-02 
3.985000e-02 -6.009733e-02 
3.995000e-02 -6.009133e-02 
4.005000e-02 -6.008533e-02 
4.015000e-02 -6.007933e-02 
4.025000e-02 -6.007333e-02 
4.035000e-02 -6.006733e-02 
4.045000e-02 -6.006133e-02 
4.055000e-02 -6.005534e-02 
4.065000e-02 -6.004934e-02 
4.075000e-02 -6.004334e-02 
4.085000e-02 -6.003735e-02 
4.095000e-02 -6.003135e-02 
4.105000e-02 -6.002536e-02 
4.115000e-02 -6.001936e-02 
4.125000e-02 -6.001337e-02 
4.135000e-02 -6.000738e-02 
4.145000e-02 -6.000138e-02 
4.155000e-02 -5.999539e-02 
4.165000e-02 -5.998940e-02 
4.175000e-02 -5.998341e-02 
4.185000e-02 -5.997742e-02 
4.195000e-02 -5.997143e-02 
4.205000e-02 -5.996544e-02 
4.215000e-02 -5.995945e-02 
4.225000e-02 -5.995347e-02 
4.235000e-02 -5.994748e-02 
4.245000e-02 -5.994149e-02 
4.255000e-02 -5.993551e-02 
4.265000e-02 -5.992952e-02 
4.275000e-02 -5.992354e-02 
4.285000e-02 -5.991755e-02 
4.295000e-02 -5.991157e-02 
4.305000e-02 -5.990559e-02 
4.315000e-02 -5.989961e-02 
4.325000e-02 -5.989362e-02 
4.335000e-02 -5.988764e-02 
4.345000e-02 -5.988166e-02 
4.355000e-02 -5.987568e-02 
4.365000e-02 -5.986970e-02 
4.375000e-02 -5.986373e-02 
4.385000e-02 -5.985775e-02 
4.395000e-02 -5.985177e-02 
4.405000e-02 -5.984579e-02 
4.415000e-02 -5.983982e-02 
4.425000e-02 -5.983384e-02 
4.435000e-02 -5.982787e-02 
4.445000e-02 -5.982189e-02 
4.455000e-02 -5.981592e-02 
4.465000e-02 -5.980995e-02 
4.475000e-02 -5.980397e-02 
4.485000e-02 -5.979800e-02 
4.495000e-02 -5.979203e-02 
4.505000e-02 -5.978606e-02 
4.515000e-02 -5.978009e-02 
4.525000e-02 -5.977412e-02 
4.535000e-02 -5.976815e-02 
4.545000e-02 -5.976218e-02 
4.555000e-02 -5.975621e-02 
4.565000e-02 -5.975025e-02 
4.575000e-02 -5.974428e-02 
4.585000e-02 -5.973831e-02 
4.595000e-02 -5.973235e-02 
4.605000e-02 -5.972638e-02 
4.615000e-02 -5.972042e-02 
4.625000e-02 -5.971445e-02 
4.635000e-02 -5.970849e-02 
4.645000e-02 -5.970253e-02 
4.655000e-02 -5.969657e-02 
4.665000e-02 -5.969061e-02 
4.675000e-02 -5.968464e-02 
4.685000e-02 -5.967869e-02 
4.695000e-02 -5.967273e-02 
4.705000e-02 -5.966677e-02 
4.715000e-02 -5.966081e-02 
4.725000e-02 -5.965485e-02 
4.735000e-02 -5.964889e-02 
4.745000e-02 -5.964294e-02 
4.755000e-02 -5.963698e-02 
4.765000e-02 -5.963103e-02 
4.775000e-02 -5.962507e-02 
4.785000e-02 -5.961912e-02 
4.795000e-02 -5.961316e-02 
4.805000e-02 -5.960721e-02 
4.815000e-02 -5.960126e-02 
4.825000e-02 -5.959531e-02 
4.835000e-02 -5.958935e-02 
4.845000e-02 -5.958340e-02 
4.855000e-02 -5.957745e-02 
4.865000e-02 -5.957150e-02 
4.875000e-02 -5.956555e-02 
4.885000e-02 -5.955961e-02 
4.895000e-02 -5.955366e-02 
4.905000e-02 -5.954771e-02 
4.915000e-02 -5.954177e-02 
4.925000e-02 -5.953582e-02 
4.935000e-02 -5.952987e-02 
4.945000e-02 -5.952393e-02 
4.955000e-02 -5.951799e-02 
4.965000e-02 -5.951204e-02 
4.975000e-02 -5.950610e-02 
4.985000e-02 -5.950016e-02 
4.995000e-02 -5.949421e-02 
5.005000e-02 -5.948827e-02 
5.015000e-02 -5.948233e-02 
5.025000e-02 -5.947639e-02 
5.035000e-02 -5.947045e-02 
5.045000e-02 -5.946451e-02 
5.055000e-02 -5.945858e-02 
5.065000e-02 -5.945264e-02 
5.075000e-02 -5.944670e-02 
5.085000e-02 -5.944077e-02 
5.095000e-02 -5.943483e-02 
5.105000e-02 -5.942889e-02 
5.115000e-02 -5.942296e-02 
5.125000e-02 -5.941703e-02 
5.135000e-02 -5.941109e-02 
5.145000e-02 -5.940516e-02 
5.155000e-02 -5.939923e-02 
5.165000e-02 -5.939330e-02 
5.175000e-02 -5.938736e-02 
5.185000e-02 -5.938143e-02 
5.195000e-02 -5.937550e-02 
5.205000e-02 -5.936957e-02 
5.215000e-02 -5.936365e-02 
5.225000e-02 -5.935772e-02 
5.235000e-02 -5.935179e-02 
5.245000e-02 -5.934586e-02 
5.255000e-02 -5.933994e-02 
5.265000e-02 -5.933401e-02 
5.275000e-02 -5.932809e-02 
5.285000e-02 -5.932216e-02 
5.295000e-02 -5.931624e-02 
5.305000e-02 -5.931031e-02 
5.315000e-02 -5.930439e-02 
5.325000e-02 -5.929847e-02 
5.335000e-02 -5.929255e-02 
5.345000e-02 -5.928663e-02 
5.355000e-02 -5.928071e-02 
5.365000e-02 -5.927479e-02 
5.375000e-02 -5.926887e-02 
5.385000e-02 -5.926295e-02 
5.395000e-02 -5.925703e-02 
5.405000e-02 -5.925111e-02 
5.415000e-02 -5.924520e-02 
5.425000e-02 -5.923928e-02 
5.435000e-02 -5.923336e-02 
5.445000e-02 -5.922745e-02 
5.455000e-02 -5.922154e-02 
5.465000e-02 -5.921562e-02 
5.475000e-02 -5.920971e-02 
5.485000e-02 -5.920380e-02 
5.495000e-02 -5.919788e-02 
5.505000e-02 -5.919197e-02 
5.515000e-02 -5.918606e-02 
5.525000e-02 -5.918015e-02 
5.535000e-02 -5.917424e-02 
5.545000e-02 -5.916833e-02 
5.555000e-02 -5.916242e-02 
5.565000e-02 -5.915652e-02 
5.575000e-02 -5.915061e-02 
5.585000e-02 -5.914470e-02 
5.595000e-02 -5.913879e-02 
5.605000e-02 -5.913289e-02 
5.615000e-02 -5.912698e-02 
5.625000e-02 -5.912108e-02 
5.635000e-02 -5.911518e-02 
5.645000e-02 -5.910927e-02 
5.655000e-02 -5.910337e-02 
5.665000e-02 -5.909747e-02 
5.675000e-02 -5.909157e-02 
5.685000e-02 -5.908567e-02 
5.695000e-02 -5.907977e-02 
5.705000e-02 -5.907387e-02 
5.715000e-02 -5.906797e-02 
5.725000e-02 -5.906207e-02 
5.735000e-02 -5.905617e-02 
5.745000e-02 -5.905027e-02 
5.755000e-02 -5.904438e-02 
5.765000e-02 -5.903848e-02 
5.775000e-02 -5.903258e-02 
5.785000e-02 -5.902669e-02 
5.795000e-02 -5.902080e-02 
5.805000e-02 -5.901490e-02 
5.815000e-02 -5.900901e-02 
5.825000e-02 -5.900312e-02 
5.835000e-02 -5.899722e-02 
5.845000e-02 -5.899133e-02 
5.855000e-02 -5.898544e-02 
5.865000e-02 -5.897955e-02 
5.875000e-02 -5.897366e-02 
5.885000e-02 -5.896777e-02 
5.895000e-02 -5.896188e-02 
5.905000e-02 -5.895600e-02 
5.915000e-02 -5.895011e-02 
5.925000e-02 -5.894422e-02 
5.935000e-02 -5.893834e-02 
5.945000e-02 -5.893245e-02 
5.955000e-02 -5.892657e-02 
5.965000e-02 -5.892068e-02 
5.975000e-02 -5.891480e-02 
5.985000e-02 -5.890891e-02 
5.995000e-02 -5.890303e-02 
6.000000e-02 -5.890009e-02 
6.001000e-02 -5.887769e-02 
6.003000e-02 -5.881923e-02 
6.007000e-02 -5.869039e-02 
6.015000e-02 -5.844011e-02 
6.025000e-02 -5.812295e-02 
6.035000e-02 -5.780913e-02 
6.045000e-02 -5.749245e-02 
6.055000e-02 -5.717834e-02 
6.065000e-02 -5.686203e-02 
6.075000e-02 -5.654770e-02 
6.085000e-02 -5.623170e-02 
6.095000e-02 -5.591723e-02 
6.105000e-02 -5.560148e-02 
6.115000e-02 -5.528690e-02 
6.125000e-02 -5.497136e-02 
6.135000e-02 -5.465672e-02 
6.145000e-02 -5.434135e-02 
6.155000e-02 -5.402667e-02 
6.165000e-02 -5.371145e-02 
6.175000e-02 -5.339677e-02 
6.185000e-02 -5.308167e-02 
6.195000e-02 -5.276699e-02 
6.205000e-02 -5.245201e-02 
6.215000e-02 -5.213735e-02 
6.225000e-02 -5.182247e-02 
6.235000e-02 -5.150784e-02 
6.245000e-02 -5.119305e-02 
6.255000e-02 -5.087846e-02 
6.265000e-02 -5.056375e-02 
6.275000e-02 -5.024920e-02 
6.285000e-02 -4.993458e-02 
6.295000e-02 -4.962008e-02 
6.305000e-02 -4.930553e-02 
6.315000e-02 -4.899108e-02 
6.325000e-02 -4.867661e-02 
6.335000e-02 -4.836221e-02 
6.345000e-02 -4.804780e-02 
6.355000e-02 -4.773346e-02 
6.365000e-02 -4.741913e-02 
6.375000e-02 -4.710484e-02 
6.385000e-02 -4.679058e-02 
6.395000e-02 -4.647635e-02 
6.405000e-02 -4.616215e-02 
6.415000e-02 -4.584799e-02 
6.425000e-02 -4.553385e-02 
6.435000e-02 -4.521974e-02 
6.445000e-02 -4.490567e-02 
6.455000e-02 -4.459163e-02 
6.465000e-02 -4.427762e-02 
6.475000e-02 -4.396364e-02 
6.485000e-02 -4.364970e-02 
6.495000e-02 -4.333578e-02 
6.505000e-02 -4.302190e-02 
6.515000e-02 -4.270804e-02 
6.525000e-02 -4.239422e-02 
6.535000e-02 -4.208043e-02 
6.545000e-02 -4.176667e-02 
6.555000e-02 -4.145294e-02 
6.565000e-02 -4.113925e-02 
6.575000e-02 -4.082558e-02 
6.585000e-02 -4.051195e-02 
6.595000e-02 -4.019834e-02 
6.605000e-02 -3.988477e-02 
6.615000e-02 -3.957123e-02 
6.625000e-02 -3.925773e-02 
6.635000e-02 -3.894424e-02 
6.645000e-02 -3.863080e-02 
6.655000e-02 -3.831738e-02 
6.665000e-02 -3.800400e-02 
6.675000e-02 -3.769065e-02 
6.685000e-02 -3.737733e-02 
6.695000e-02 -3.706404e-02 
6.705000e-02 -3.675078e-02 
6.715000e-02 -3.643755e-02 
6.725000e-02 -3.612436e-02 
6.735000e-02 -3.581119e-02 
6.745000e-02 -3.549806e-02 
6.755000e-02 -3.518495e-02 
6.765000e-02 -3.487189e-02 
6.775000e-02 -3.455884e-02 
6.785000e-02 -3.424584e-02 
6.795000e-02 -3.393286e-02 
6.805000e-02 -3.361992e-02 
6.815000e-02 -3.330700e-02 
6.825000e-02 -3.299412e-02 
6.835000e-02 -3.268126e-02 
6.845000e-02 -3.236845e-02 
6.855000e-02 -3.205565e-02 
6.865000e-02 -3.174290e-02 
6.875000e-02 -3.143017e-02 
6.885000e-02 -3.111748e-02 
6.895000e-02 -3.080481e-02 
6.905000e-02 -3.049218e-02 
6.915000e-02 -3.017957e-02 
6.925000e-02 -2.986701e-02 
6.935000e-02 -2.955446e-02 
6.945000e-02 -2.924196e-02 
6.955000e-02 -2.892948e-02 
6.965000e-02 -2.861704e-02 
6.975000e-02 -2.830462e-02 
6.985000e-02 -2.799224e-02 
6.995000e-02 -2.767988e-02 
7.005000e-02 -2.736756e-02 
7.015000e-02 -2.705527e-02 
7.025000e-02 -2.674302e-02 
7.035000e-02 -2.643078e-02 
7.045000e-02 -2.611859e-02 
7.055000e-02 -2.580642e-02 
7.065000e-02 -2.549429e-02 
7.075000e-02 -2.518219e-02 
7.085000e-02 -2.487012e-02 
7.095000e-02 -2.455807e-02 
7.105000e-02 -2.424607e-02 
7.115000e-02 -2.393408e-02 
7.125000e-02 -2.362214e-02 
7.135000e-02 -2.331022e-02 
7.145000e-02 -2.299834e-02 
7.155000e-02 -2.268648e-02 
7.165000e-02 -2.237466e-02 
7.175000e-02 -2.206287e-02 
7.185000e-02 -2.175111e-02 
7.195000e-02 -2.143938e-02 
7.205000e-02 -2.112768e-02 
7.215000e-02 -2.081601e-02 
7.225000e-02 -2.050438e-02 
7.235000e-02 -2.019277e-02 
7.245000e-02 -1.988120e-02 
7.255000e-02 -1.956966e-02 
7.265000e-02 -1.925815e-02 
7.275000e-02 -1.894667e-02 
7.285000e-02 -1.863522e-02 
7.295000e-02 -1.832380e-02 
7.305000e-02 -1.801241e-02 
7.315000e-02 -1.770106e-02 
7.325000e-02 -1.738973e-02 
7.335000e-02 -1.707844e-02 
7.345000e-02 -1.676718e-02 
7.355000e-02 -1.645594e-02 
7.365000e-02 -1.614475e-02 
7.375000e-02 -1.583357e-02 
7.385000e-02 -1.552244e-02 
7.395000e-02 -1.521133e-02 
7.405000e-02 -1.490025e-02 
7.415000e-02 -1.458921e-02 
7.425000e-02 -1.427819e-02 
7.435000e-02 -1.396721e-02 
7.445000e-02 -1.365626e-02 
7.455000e-02 -1.334534e-02 
7.465000e-02 -1.303445e-02 
7.475000e-02 -1.272359e-02 
7.485000e-02 -1.241276e-02 
7.495000e-02 -1.210196e-02 
7.505000e-02 -1.179120e-02 
7.515000e-02 -1.148046e-02 
7.525000e-02 -1.116976e-02 
7.535000e-02 -1.085909e-02 
7.545000e-02 -1.054845e-02 
7.555000e-02 -1.023783e-02 
7.565000e-02 -9.927257e-03 
7.575000e-02 -9.616706e-03 
7.585000e-02 -9.306191e-03 
7.595000e-02 -8.995702e-03 
7.605000e-02 -8.685249e-03 
7.615000e-02 -8.374822e-03 
7.625000e-02 -8.064430e-03 
7.635000e-02 -7.754066e-03 
7.645000e-02 -7.443736e-03 
7.655000e-02 -7.133434e-03 
7.665000e-02 -6.823166e-03 
7.675000e-02 -6.512926e-03 
7.685000e-02 -6.202720e-03 
7.695000e-02 -5.892542e-03 
7.705000e-02 -5.582398e-03 
7.715000e-02 -5.272282e-03 
7.725000e-02 -4.962199e-03 
7.735000e-02 -4.652145e-03 
7.745000e-02 -4.342125e-03 
7.755000e-02 -4.032133e-03 
7.765000e-02 -3.722174e-03 
7.775000e-02 -3.412244e-03 
7.785000e-02 -3.102347e-03 
7.795000e-02 -2.792479e-03 
7.805000e-02 -2.482644e-03 
7.815000e-02 -2.172838e-03 
7.825000e-02 -1.863065e-03 
7.835000e-02 -1.553321e-03 
7.845000e-02 -1.243610e-03 
7.855000e-02 -9.339271e-04 
7.865000e-02 -6.242778e-04 
7.875000e-02 -3.146572e-04 
7.885000e-02 -5.069740e-06 
7.895000e-02 3.044891e-04 
7.905000e-02 6.140147e-04 
7.915000e-02 9.235116e-04 
7.925000e-02 1.232975e-03 
7.935000e-02 1.542411e-03 
7.945000e-02 1.851813e-03 
7.955000e-02 2.161186e-03 
7.965000e-02 2.470526e-03 
7.975000e-02 2.779838e-03 
7.985000e-02 3.089116e-03 
7.995000e-02 3.398366e-03 
8.000000e-02 3.552978e-03 
8.001000e-02 3.562086e-03 
8.003000e-02 3.566643e-03 
8.007000e-02 3.563838e-03 
8.015000e-02 3.565607e-03 
8.025000e-02 3.563484e-03 
8.035000e-02 3.564675e-03 
8.045000e-02 3.562965e-03 
8.055000e-02 3.563795e-03 
8.065000e-02 3.562401e-03 
8.075000e-02 3.562953e-03 
8.085000e-02 3.561803e-03 
8.095000e-02 3.562142e-03 
8.105000e-02 3.561179e-03 
8.115000e-02 3.561355e-03 
8.125000e-02 3.560534e-03 
8.135000e-02 3.560585e-03 
8.145000e-02 3.559875e-03 
8.155000e-02 3.559829e-03 
8.165000e-02 3.559203e-03 
8.175000e-02 3.559083e-03 
8.185000e-02 3.558523e-03 
8.195000e-02 3.558346e-03 
8.205000e-02 3.557835e-03 
8.215000e-02 3.557615e-03 
8.225000e-02 3.557143e-03 
8.235000e-02 3.556889e-03 
8.245000e-02 3.556446e-03 
8.255000e-02 3.556166e-03 
8.265000e-02 3.555746e-03 
8.275000e-02 3.555447e-03 
8.285000e-02 3.555044e-03 
8.295000e-02 3.554730e-03 
8.305000e-02 3.554340e-03 
8.315000e-02 3.554014e-03 
8.325000e-02 3.553635e-03 
8.335000e-02 3.553301e-03 
8.345000e-02 3.552929e-03 
8.355000e-02 3.552588e-03 
8.365000e-02 3.552222e-03 
8.375000e-02 3.551876e-03 
8.385000e-02 3.551515e-03 
8.395000e-02 3.551165e-03 
8.405000e-02 3.550807e-03 
8.415000e-02 3.550454e-03 
8.425000e-02 3.550099e-03 
8.435000e-02 3.549744e-03 
8.445000e-02 3.549391e-03 
8.455000e-02 3.549034e-03 
8.465000e-02 3.548683e-03 
8.475000e-02 3.548325e-03 
8.485000e-02 3.547974e-03 
8.495000e-02 3.547616e-03 
8.505000e-02 3.547266e-03 
8.515000e-02 3.546907e-03 
8.525000e-02 3.546558e-03 
8.535000e-02 3.546199e-03 
8.545000e-02 3.545850e-03 
8.555000e-02 3.545490e-03 
8.565000e-02 3.545142e-03 
8.575000e-02 3.544782e-03 
8.585000e-02 3.544434e-03 
8.595000e-02 3.544074e-03 
8.605000e-02 3.543726e-03 
8.615000e-02 3.543366e-03 
8.625000e-02 3.543018e-03 
8.635000e-02 3.542659e-03 
8.645000e-02 3.542311e-03 
8.655000e-02 3.541951e-03 
8.665000e-02 3.541603e-03 
8.675000e-02 3.541244e-03 
8.685000e-02 3.540896e-03 
8.695000e-02 3.540537e-03 
8.705000e-02 3.540189e-03 
8.715000e-02 3.539830e-03 
8.725000e-02 3.539482e-03 
8.735000e-02 3.539123e-03 
8.745000e-02 3.538775e-03 
8.755000e-02 3.538416e-03 
8.765000e-02 3.538068e-03 
8.775000e-02 3.537709e-03 
8.785000e-02 3.537361e-03 
8.795000e-02 3.537003e-03 
8.805000e-02 3.536655e-03 
8.815000e-02 3.536297e-03 
8.825000e-02 3.535948e-03 
8.835000e-02 3.535591e-03 
8.845000e-02 3.535242e-03 
8.855000e-02 3.534885e-03 
8.865000e-02 3.534536e-03 
8.875000e-02 3.534179e-03 
8.885000e-02 3.533830e-03 
8.895000e-02 3.533473e-03 
8.905000e-02 3.533124e-03 
8.915000e-02 3.532767e-03 
8.925000e-02 3.532419e-03 
8.935000e-02 3.532062e-03 
8.945000e-02 3.531713e-03 
8.955000e-02 3.531356e-03 
8.965000e-02 3.531008e-03 
8.975000e-02 3.530651e-03 
8.985000e-02 3.530303e-03 
8.995000e-02 3.529946e-03 
9.005000e-02 3.529598e-03 
9.015000e-02 3.529241e-03 
9.025000e-02 3.528893e-03 
9.035000e-02 3.528537e-03 
9.045000e-02 3.528188e-03 
9.055000e-02 3.527832e-03 
9.065000e-02 3.527483e-03 
9.075000e-02 3.527127e-03 
9.085000e-02 3.526779e-03 
9.095000e-02 3.526423e-03 
9.105000e-02 3.526074e-03 
9.115000e-02 3.525719e-03 
9.125000e-02 3.525370e-03 
9.135000e-02 3.525015e-03 
9.145000e-02 3.524666e-03 
9.155000e-02 3.524311e-03 
9.165000e-02 3.523962e-03 
9.175000e-02 3.523607e-03 
9.185000e-02 3.523258e-03 
9.195000e-02 3.522903e-03 
9.205000e-02 3.522555e-03 
9.215000e-02 3.522200e-03 
9.225000e-02 3.521851e-03 
9.235000e-02 3.521497e-03 
9.245000e-02 3.521148e-03 
9.255000e-02 3.520793e-03 
9.265000e-02 3.520444e-03 
9.275000e-02 3.520090e-03 
9.285000e-02 3.519741e-03 
9.295000e-02 3.519387e-03 
9.305000e-02 3.519038e-03 
9.315000e-02 3.518684e-03 
9.325000e-02 3.518336e-03 
9.335000e-02 3.517982e-03 
9.345000e-02 3.517633e-03 
9.355000e-02 3.517279e-03 
9.365000e-02 3.516930e-03 
9.375000e-02 3.516577e-03 
9.385000e-02 3.516228e-03 
9.395000e-02 3.515875e-03 
9.405000e-02 3.515526e-03 
9.415000e-02 3.515172e-03 
9.425000e-02 3.514824e-03 
9.435000e-02 3.514470e-03 
9.445000e-02 3.514122e-03 
9.455000e-02 3.513769e-03 
9.465000e-02 3.513420e-03 
9.475000e-02 3.513067e-03 
9.485000e-02 3.512718e-03 
9.495000e-02 3.512365e-03 
9.505000e-02 3.512016e-03 
9.515000e-02 3.511664e-03 
9.525000e-02 3.511315e-03 
9.535000e-02 3.510963e-03 
9.545000e-02 3.510614e-03 
9.555000e-02 3.510261e-03 
9.565000e-02 3.509913e-03 
9.575000e-02 3.509560e-03 
9.585000e-02 3.509212e-03 
9.595000e-02 3.508860e-03 
9.605000e-02 3.508511e-03 
9.615000e-02 3.508159e-03 
9.625000e-02 3.507810e-03 
9.635000e-02 3.507458e-03 
9.645000e-02 3.507110e-03 
9.655000e-02 3.506758e-03 
9.665000e-02 3.506409e-03 
9.675000e-02 3.506057e-03 
9.685000e-02 3.505709e-03 
9.695000e-02 3.505357e-03 
9.705000e-02 3.505009e-03 
9.715000e-02 3.504657e-03 
9.725000e-02 3.504309e-03 
9.735000e-02 3.503957e-03 
9.745000e-02 3.503609e-03 
9.755000e-02 3.503258e-03 
9.765000e-02 3.502909e-03 
9.775000e-02 3.502558e-03 
9.785000e-02 3.502209e-03 
9.795000e-02 3.501858e-03 
9.805000e-02 3.501510e-03 
9.815000e-02 3.501159e-03 
9.825000e-02 3.500811e-03 
9.835000e-02 3.500460e-03 
9.845000e-02 3.500112e-03 
9.855000e-02 3.499761e-03 
9.865000e-02 3.499413e-03 
9.875000e-02 3.499062e-03 
9.885000e-02 3.498714e-03 
9.895000e-02 3.498363e-03 
9.905000e-02 3.498015e-03 
9.915000e-02 3.497664e-03 
9.925000e-02 3.497316e-03 
9.935000e-02 3.496966e-03 
9.945000e-02 3.496618e-03 
9.955000e-02 3.496268e-03 
9.965000e-02 3.495919e-03 
9.975000e-02 3.495569e-03 
9.985000e-02 3.495221e-03 
9.995000e-02 3.494871e-03 
1.000500e-01 3.494523e-03 
1.001500e-01 3.494173e-03 
1.002500e-01 3.493825e-03 
1.003500e-01 3.493475e-03 
1.004500e-01 3.493128e-03 
1.005500e-01 3.492778e-03 
1.006500e-01 3.492430e-03 
1.007500e-01 3.492080e-03 
1.008500e-01 3.491732e-03 
1.009500e-01 3.491383e-03 
1.010500e-01 3.491035e-03 
1.011500e-01 3.490686e-03 
1.012500e-01 3.490338e-03 
1.013500e-01 3.489988e-03 
1.014500e-01 3.489641e-03 
1.015500e-01 3.489291e-03 
1.016500e-01 3.488944e-03 
1.017500e-01 3.488595e-03 
1.018500e-01 3.488247e-03 
1.019500e-01 3.487898e-03 
1.020500e-01 3.487550e-03 
1.021500e-01 3.487201e-03 
1.022500e-01 3.486854e-03 
1.023500e-01 3.486505e-03 
1.024500e-01 3.486157e-03 
1.025500e-01 3.485809e-03 
1.026500e-01 3.485461e-03 
1.027500e-01 3.485113e-03 
1.028500e-01 3.484765e-03 
1.029500e-01 3.484416e-03 
1.030500e-01 3.484069e-03 
1.031500e-01 3.483721e-03 
1.032500e-01 3.483373e-03 
1.033500e-01 3.483025e-03 
1.034500e-01 3.482678e-03 
1.035500e-01 3.482329e-03 
1.036500e-01 3.481982e-03 
1.037500e-01 3.481634e-03 
1.038500e-01 3.481287e-03 
1.039500e-01 3.480939e-03 
1.040500e-01 3.480591e-03 
1.041500e-01 3.480243e-03 
1.042500e-01 3.479896e-03 
1.043500e-01 3.479548e-03 
1.044500e-01 3.479201e-03 
1.045500e-01 3.478853e-03 
1.046500e-01 3.478507e-03 
1.047500e-01 3.478159e-03 
1.048500e-01 3.477812e-03 
1.049500e-01 3.477464e-03 
1.050500e-01 3.477117e-03 
1.051500e-01 3.476770e-03 
1.052500e-01 3.476423e-03 
1.053500e-01 3.476075e-03 
1.054500e-01 3.475729e-03 
1.055500e-01 3.475381e-03 
1.056500e-01 3.475034e-03 
1.057500e-01 3.474687e-03 
1.058500e-01 3.474340e-03 
1.059500e-01 3.473993e-03 
1.060500e-01 3.473647e-03 
1.061500e-01 3.473299e-03 
1.062500e-01 3.472953e-03 
1.063500e-01 3.472606e-03 
1.064500e-01 3.472259e-03 
1.065500e-01 3.471912e-03 
1.066500e-01 3.471566e-03 
1.067500e-01 3.471219e-03 
1.068500e-01 3.470873e-03 
1.069500e-01 3.470526e-03 
1.070500e-01 3.470179e-03 
1.071500e-01 3.469832e-03 
1.072500e-01 3.469486e-03 
1.073500e-01 3.469140e-03 
1.074500e-01 3.468793e-03 
1.075500e-01 3.468447e-03 
1.076500e-01 3.468101e-03 
1.077500e-01 3.467754e-03 
1.078500e-01 3.467408e-03 
1.079500e-01 3.467061e-03 
1.080500e-01 3.466716e-03 
1.081500e-01 3.466369e-03 
1.082500e-01 3.466023e-03 
1.083500e-01 3.465677e-03 
1.084500e-01 3.465331e-03 
1.085500e-01 3.464985e-03 
1.086500e-01 3.464639e-03 
1.087500e-01 3.464293e-03 
1.088500e-01 3.463947e-03 
1.089500e-01 3.463601e-03 
1.090500e-01 3.463255e-03 
1.091500e-01 3.462909e-03 
1.092500e-01 3.462564e-03 
1.093500e-01 3.462218e-03 
1.094500e-01 3.461872e-03 
1.095500e-01 3.461526e-03 
1.096500e-01 3.461181e-03 
1.097500e-01 3.460835e-03 
1.098500e-01 3.460490e-03 
1.099500e-01 3.460144e-03 
1.100500e-01 3.459798e-03 
1.101500e-01 3.459453e-03 
1.102500e-01 3.459107e-03 
1.103500e-01 3.458762e-03 
1.104500e-01 3.458417e-03 
1.105500e-01 3.458071e-03 
1.106500e-01 3.457726e-03 
1.107500e-01 3.457380e-03 
1.108500e-01 3.457035e-03 
1.109500e-01 3.456690e-03 
1.110500e-01 3.456345e-03 
1.111500e-01 3.456000e-03 
1.112500e-01 3.455655e-03 
1.113500e-01 3.455309e-03 
1.114500e-01 3.454965e-03 
1.115500e-01 3.454619e-03 
1.116500e-01 3.454275e-03 
1.117500e-01 3.453929e-03 
1.118500e-01 3.453585e-03 
1.119500e-01 3.453240e-03 
1.120500e-01 3.452895e-03 
1.121500e-01 3.452550e-03 
1.122500e-01 3.452205e-03 
1.123500e-01 3.451861e-03 
1.124500e-01 3.451516e-03 
1.125500e-01 3.451171e-03 
1.126500e-01 3.450827e-03 
1.127500e-01 3.450482e-03 
1.128500e-01 3.450138e-03 
1.129500e-01 3.449793e-03 
1.130500e-01 3.449449e-03 
1.131500e-01 3.449104e-03 
1.132500e-01 3.448760e-03 
1.133500e-01 3.448415e-03 
1.134500e-01 3.448071e-03 
1.135500e-01 3.447726e-03 
1.136500e-01 3.447382e-03 
1.137500e-01 3.447038e-03 
1.138500e-01 3.446694e-03 
1.139500e-01 3.446349e-03 
1.140500e-01 3.446005e-03 
1.141500e-01 3.445661e-03 
1.142500e-01 3.445317e-03 
1.143500e-01 3.444973e-03 
1.144500e-01 3.444629e-03 
1.145500e-01 3.444285e-03 
1.146500e-01 3.443941e-03 
1.147500e-01 3.443597e-03 
1.148500e-01 3.443253e-03 
1.149500e-01 3.442909e-03 
1.150500e-01 3.442566e-03 
1.151500e-01 3.442222e-03 
1.152500e-01 3.441878e-03 
1.153500e-01 3.441534e-03 
1.154500e-01 3.441191e-03 
1.155500e-01 3.440847e-03 
1.156500e-01 3.440504e-03 
1.157500e-01 3.440160e-03 
1.158500e-01 3.439816e-03 
1.159500e-01 3.439473e-03 
1.160500e-01 3.439129e-03 
1.161500e-01 3.438786e-03 
1.162500e-01 3.438443e-03 
1.163500e-01 3.438099e-03 
1.164500e-01 3.437756e-03 
1.165500e-01 3.437413e-03 
1.166500e-01 3.437069e-03 
1.167500e-01 3.436726e-03 
1.168500e-01 3.436383e-03 
1.169500e-01 3.436040e-03 
1.170500e-01 3.435697e-03 
1.171500e-01 3.435353e-03 
1.172500e-01 3.435011e-03 
1.173500e-01 3.434667e-03 
1.174500e-01 3.434325e-03 
1.175500e-01 3.433981e-03 
1.176500e-01 3.433639e-03 
1.177500e-01 3.433296e-03 
1.178500e-01 3.432953e-03 
1.179500e-01 3.432610e-03 
1.180500e-01 3.432267e-03 
1.181500e-01 3.431924e-03 
1.182500e-01 3.431582e-03 
1.183500e-01 3.431239e-03 
1.184500e-01 3.430896e-03 
1.185500e-01 3.430554e-03 
1.186500e-01 3.430211e-03 
1.187500e-01 3.429869e-03 
1.188500e-01 3.429526e-03 
1.189500e-01 3.429184e-03 
1.190500e-01 3.428841e-03 
1.191500e-01 3.428499e-03 
1.192500e-01 3.428157e-03 
1.193500e-01 3.427814e-03 
1.194500e-01 3.427472e-03 
1.195500e-01 3.427130e-03 
1.196500e-01 3.426787e-03 
1.197500e-01 3.426445e-03 
1.198500e-01 3.426103e-03 
1.199500e-01 3.425761e-03 
1.200500e-01 3.425419e-03 
1.201500e-01 3.425077e-03 
1.202500e-01 3.424735e-03 
1.203500e-01 3.424393e-03 
1.204500e-01 3.424051e-03 
1.205500e-01 3.423709e-03 
1.206500e-01 3.423367e-03 
1.207500e-01 3.423025e-03 
1.208500e-01 3.422683e-03 
1.209500e-01 3.422341e-03 
1.210500e-01 3.422000e-03 
1.211500e-01 3.421658e-03 
1.212500e-01 3.421316e-03 
1.213500e-01 3.420975e-03 
1.214500e-01 3.420633e-03 
1.215500e-01 3.420291e-03 
1.216500e-01 3.419950e-03 
1.217500e-01 3.419608e-03 
1.218500e-01 3.419267e-03 
1.219500e-01 3.418925e-03 
1.220500e-01 3.418584e-03 
1.221500e-01 3.418243e-03 
1.222500e-01 3.417901e-03 
1.223500e-01 3.417560e-03 
1.224500e-01 3.417219e-03 
1.225500e-01 3.416877e-03 
1.226500e-01 3.416536e-03 
1.227500e-01 3.416195e-03 
1.228500e-01 3.415854e-03 
1.229500e-01 3.415513e-03 
1.230500e-01 3.415172e-03 
1.231500e-01 3.414831e-03 
1.232500e-01 3.414490e-03 
1.233500e-01 3.414149e-03 
1.234500e-01 3.413808e-03 
1.235500e-01 3.413467e-03 
1.236500e-01 3.413126e-03 
1.237500e-01 3.412785e-03 
1.238500e-01 3.412444e-03 
1.239500e-01 3.412104e-03 
1.240500e-01 3.411763e-03 
1.241500e-01 3.411422e-03 
1.242500e-01 3.411082e-03 
1.243500e-01 3.410741e-03 
1.244500e-01 3.410400e-03 
1.245500e-01 3.410060e-03 
1.246500e-01 3.409719e-03 
1.247500e-01 3.409379e-03 
1.248500e-01 3.409038e-03 
1.249500e-01 3.408698e-03 
1.250500e-01 3.408357e-03 
1.251500e-01 3.408017e-03 
1.252500e-01 3.407677e-03 
1.253500e-01 3.407336e-03 
1.254500e-01 3.406996e-03 
1.255500e-01 3.406656e-03 
1.256500e-01 3.406316e-03 
1.257500e-01 3.405976e-03 
1.258500e-01 3.405636e-03 
1.259500e-01 3.405295e-03 
1.260500e-01 3.404955e-03 
1.261500e-01 3.404615e-03 
1.262500e-01 3.404275e-03 
1.263500e-01 3.403935e-03 
1.264500e-01 3.403596e-03 
1.265500e-01 3.403256e-03 
1.266500e-01 3.402916e-03 
1.267500e-01 3.402576e-03 
1.268500e-01 3.402236e-03 
1.269500e-01 3.401896e-03 
1.270500e-01 3.401557e-03 
1.271500e-01 3.401217e-03 
1.272500e-01 3.400877e-03 
1.273500e-01 3.400538e-03 
1.274500e-01 3.400198e-03 
1.275500e-01 3.399859e-03 
1.276500e-01 3.399519e-03 
1.277500e-01 3.399180e-03 
1.278500e-01 3.398840e-03 
1.279500e-01 3.398501e-03 
1.280500e-01 3.398162e-03 
1.281500e-01 3.397822e-03 
1.282500e-01 3.397483e-03 
1.283500e-01 3.397144e-03 
1.284500e-01 3.396804e-03 
1.285500e-01 3.396465e-03 
1.286500e-01 3.396126e-03 
1.287500e-01 3.395787e-03 
1.288500e-01 3.395448e-03 
1.289500e-01 3.395109e-03 
1.290500e-01 3.394770e-03 
1.291500e-01 3.394431e-03 
1.292500e-01 3.394092e-03 
1.293500e-01 3.393753e-03 
1.294500e-01 3.393414e-03 
1.295500e-01 3.393075e-03 
1.296500e-01 3.392736e-03 
1.297500e-01 3.392397e-03 
1.298500e-01 3.392059e-03 
1.299500e-01 3.391720e-03 
1.300500e-01 3.391381e-03 
1.301500e-01 3.391042e-03 
1.302500e-01 3.390704e-03 
1.303500e-01 3.390365e-03 
1.304500e-01 3.390027e-03 
1.305500e-01 3.389688e-03 
1.306500e-01 3.389350e-03 
1.307500e-01 3.389011e-03 
1.308500e-01 3.388673e-03 
1.309500e-01 3.388334e-03 
1.310500e-01 3.387996e-03 
1.311500e-01 3.387658e-03 
1.312500e-01 3.387319e-03 
1.313500e-01 3.386981e-03 
1.314500e-01 3.386643e-03 
1.315500e-01 3.386305e-03 
1.316500e-01 3.385967e-03 
1.317500e-01 3.385628e-03 
1.318500e-01 3.385290e-03 
1.319500e-01 3.384952e-03 
1.320500e-01 3.384614e-03 
1.321500e-01 3.384276e-03 
1.322500e-01 3.383938e-03 
1.323500e-01 3.383600e-03 
1.324500e-01 3.383262e-03 
1.325500e-01 3.382925e-03 
1.326500e-01 3.382587e-03 
1.327500e-01 3.382249e-03 
1.328500e-01 3.381911e-03 
1.329500e-01 3.381574e-03 
1.330500e-01 3.381236e-03 
1.331500e-01 3.380898e-03 
1.332500e-01 3.380561e-03 
1.333500e-01 3.380223e-03 
1.334500e-01 3.379885e-03 
1.335500e-01 3.379548e-03 
1.336500e-01 3.379210e-03 
1.337500e-01 3.378873e-03 
1.338500e-01 3.378536e-03 
1.339500e-01 3.378198e-03 
1.340500e-01 3.377861e-03 
1.341500e-01 3.377523e-03 
1.342500e-01 3.377186e-03 
1.343500e-01 3.376849e-03 
1.344500e-01 3.376512e-03 
1.345500e-01 3.376175e-03 
1.346500e-01 3.375837e-03 
1.347500e-01 3.375500e-03 
1.348500e-01 3.375163e-03 
1.349500e-01 3.374826e-03 
1.350500e-01 3.374489e-03 
1.351500e-01 3.374152e-03 
1.352500e-01 3.373815e-03 
1.353500e-01 3.373478e-03 
1.354500e-01 3.373141e-03 
1.355500e-01 3.372805e-03 
1.356500e-01 3.372468e-03 
1.357500e-01 3.372131e-03 
1.358500e-01 3.371794e-03 
1.359500e-01 3.371458e-03 
1.360500e-01 3.371121e-03 
1.361500e-01 3.370784e-03 
1.362500e-01 3.370448e-03 
1.363500e-01 3.370111e-03 
1.364500e-01 3.369774e-03 
1.365500e-01 3.369438e-03 
1.366500e-01 3.369102e-03 
1.367500e-01 3.368765e-03 
1.368500e-01 3.368429e-03 
1.369500e-01 3.368092e-03 
1.370500e-01 3.367756e-03 
1.371500e-01 3.367420e-03 
1.372500e-01 3.367083e-03 
1.373500e-01 3.366747e-03 
1.374500e-01 3.366411e-03 
1.375500e-01 3.366075e-03 
1.376500e-01 3.365739e-03 
1.377500e-01 3.365403e-03 
1.378500e-01 3.365066e-03 
1.379500e-01 3.364730e-03 
1.380500e-01 3.364394e-03 
1.381500e-01 3.364058e-03 
1.382500e-01 3.363723e-03 
1.383500e-01 3.363387e-03 
1.384500e-01 3.363051e-03 
1.385500e-01 3.362715e-03 
1.386500e-01 3.362379e-03 
1.387500e-01 3.362043e-03 
1.388500e-01 3.361708e-03 
1.389500e-01 3.361372e-03 
1.390500e-01 3.361036e-03 
1.391500e-01 3.360701e-03 
1.392500e-01 3.360365e-03 
1.393500e-01 3.360029e-03 
1.394500e-01 3.359694e-03 
1.395500e-01 3.359358e-03 
1.396500e-01 3.359023e-03 
1.397500e-01 3.358688e-03 
1.398500e-01 3.358352e-03 
1.399500e-01 3.358017e-03 
1.400500e-01 3.357681e-03 
1.401500e-01 3.357346e-03 
1.402500e-01 3.357011e-03 
1.403500e-01 3.356676e-03 
1.404500e-01 3.356340e-03 
1.405500e-01 3.356005e-03 
1.406500e-01 3.355670e-03 
1.407500e-01 3.355335e-03 
1.408500e-01 3.355000e-03 
1.409500e-01 3.354665e-03 
1.410500e-01 3.354330e-03 
1.411500e-01 3.353995e-03 
1.412500e-01 3.353660e-03 
1.413500e-01 3.353325e-03 
1.414500e-01 3.352990e-03 
1.415500e-01 3.352655e-03 
1.416500e-01 3.352321e-03 
1.417500e-01 3.351986e-03 
1.418500e-01 3.351651e-03 
1.419500e-01 3.351317e-03 
1.420500e-01 3.350982e-03 
1.421500e-01 3.350647e-03 
1.422500e-01 3.350313e-03 
1.423500e-01 3.349978e-03 
1.424500e-01 3.349644e-03 
1.425500e-01 3.349309e-03 
1.426500e-01 3.348975e-03 
1.427500e-01 3.348640e-03 
1.428500e-01 3.348306e-03 
1.429500e-01 3.347971e-03 
1.430500e-01 3.347637e-03 
1.431500e-01 3.347303e-03 
1.432500e-01 3.346969e-03 
1.433500e-01 3.346634e-03 
1.434500e-01 3.346300e-03 
1.435500e-01 3.345966e-03 
1.436500e-01 3.345632e-03 
1.437500e-01 3.345298e-03 
1.438500e-01 3.344964e-03 
1.439500e-01 3.344630e-03 
1.440500e-01 3.344296e-03 
1.441500e-01 3.343962e-03 
1.442500e-01 3.343628e-03 
1.443500e-01 3.343294e-03 
1.444500e-01 3.342960e-03 
1.445500e-01 3.342626e-03 
1.446500e-01 3.342292e-03 
1.447500e-01 3.341959e-03 
1.448500e-01 3.341625e-03 
1.449500e-01 3.341291e-03 
1.450500e-01 3.340958e-03 
1.451500e-01 3.340624e-03 
1.452500e-01 3.340290e-03 
1.453500e-01 3.339957e-03 
1.454500e-01 3.339623e-03 
1.455500e-01 3.339290e-03 
1.456500e-01 3.338956e-03 
1.457500e-01 3.338623e-03 
1.458500e-01 3.338289e-03 
1.459500e-01 3.337956e-03 
1.460500e-01 3.337623e-03 
1.461500e-01 3.337289e-03 
1.462500e-01 3.336956e-03 
1.463500e-01 3.336623e-03 
1.464500e-01 3.336290e-03 
1.465500e-01 3.335957e-03 
1.466500e-01 3.335623e-03 
1.467500e-01 3.335290e-03 
1.468500e-01 3.334957e-03 
1.469500e-01 3.334624e-03 
1.470500e-01 3.334291e-03 
1.471500e-01 3.333958e-03 
1.472500e-01 3.333625e-03 
1.473500e-01 3.333293e-03 
1.474500e-01 3.332960e-03 
1.475500e-01 3.332627e-03 
1.476500e-01 3.332294e-03 
1.477500e-01 3.331961e-03 
1.478500e-01 3.331629e-03 
1.479500e-01 3.331296e-03 
1.480500e-01 3.330963e-03 
1.481500e-01 3.330631e-03 
1.482500e-01 3.330298e-03 
1.483500e-01 3.329965e-03 
1.484500e-01 3.329633e-03 
1.485500e-01 3.329300e-03 
1.486500e-01 3.328968e-03 
1.487500e-01 3.328635e-03 
1.488500e-01 3.328303e-03 
1.489500e-01 3.327971e-03 
1.490500e-01 3.327638e-03 
1.491500e-01 3.327306e-03 
1.492500e-01 3.326974e-03 
1.493500e-01 3.326641e-03 
1.494500e-01 3.326309e-03 
1.495500e-01 3.325977e-03 
1.496500e-01 3.325645e-03 
1.497500e-01 3.325313e-03 
1.498500e-01 3.324981e-03 
1.499500e-01 3.324649e-03 
1.500500e-01 3.324317e-03 
1.501500e-01 3.323985e-03 
1.502500e-01 3.323653e-03 
1.503500e-01 3.323321e-03 
1.504500e-01 3.322989e-03 
1.505500e-01 3.322657e-03 
1.506500e-01 3.322325e-03 
1.507500e-01 3.321994e-03 
1.508500e-01 3.321662e-03 
1.509500e-01 3.321330e-03 
1.510500e-01 3.320999e-03 
1.511500e-01 3.320667e-03 
1.512500e-01 3.320335e-03 
1.513500e-01 3.320004e-03 
1.514500e-01 3.319672e-03 
1.515500e-01 3.319341e-03 
1.516500e-01 3.319009e-03 
1.517500e-01 3.318678e-03 
1.518500e-01 3.318346e-03 
1.519500e-01 3.318015e-03 
1.520500e-01 3.317684e-03 
1.521500e-01 3.317352e-03 
1.522500e-01 3.317021e-03 
1.523500e-01 3.316690e-03 
1.524500e-01 3.316359e-03 
1.525500e-01 3.316027e-03 
1.526500e-01 3.315696e-03 
1.527500e-01 3.315365e-03 
1.528500e-01 3.315034e-03 
1.529500e-01 3.314703e-03 
1.530500e-01 3.314372e-03 
1.531500e-01 3.314041e-03 
1.532500e-01 3.313710e-03 
1.533500e-01 3.313379e-03 
1.534500e-01 3.313048e-03 
1.535500e-01 3.312718e-03 
1.536500e-01 3.312387e-03 
1.537500e-01 3.312056e-03 
1.538500e-01 3.311725e-03 
1.539500e-01 3.311394e-03 
1.540500e-01 3.311064e-03 
1.541500e-01 3.310733e-03 
1.542500e-01 3.310403e-03 
1.543500e-01 3.310072e-03 
1.544500e-01 3.309741e-03 
1.545500e-01 3.309411e-03 
1.546500e-01 3.309080e-03 
1.547500e-01 3.308750e-03 
1.548500e-01 3.308420e-03 
1.549500e-01 3.308089e-03 
1.550500e-01 3.307759e-03 
1.551500e-01 3.307429e-03 
1.552500e-01 3.307098e-03 
1.553500e-01 3.306768e-03 
1.554500e-01 3.306438e-03 
1.555500e-01 3.306108e-03 
1.556500e-01 3.305777e-03 
1.557500e-01 3.305447e-03 
1.558500e-01 3.305117e-03 
1.559500e-01 3.304787e-03 
1.560500e-01 3.304457e-03 
1.561500e-01 3.304127e-03 
1.562500e-01 3.303797e-03 
1.563500e-01 3.303467e-03 
1.564500e-01 3.303138e-03 
1.565500e-01 3.302808e-03 
1.566500e-01 3.302478e-03 
1.567500e-01 3.302148e-03 
1.568500e-01 3.301818e-03 
1.569500e-01 3.301489e-03 
1.570500e-01 3.301159e-03 
1.571500e-01 3.300829e-03 
1.572500e-01 3.300500e-03 
1.573500e-01 3.300170e-03 
1.574500e-01 3.299840e-03 
1.575500e-01 3.299511e-03 
1.576500e-01 3.299181e-03 
1.577500e-01 3.298852e-03 
1.578500e-01 3.298523e-03 
1.579500e-01 3.298193e-03 
1.580500e-01 3.297864e-03 
1.581500e-01 3.297535e-03 
1.582500e-01 3.297205e-03 
1.583500e-01 3.296876e-03 
1.584500e-01 3.296547e-03 
1.585500e-01 3.296218e-03 
1.586500e-01 3.295888e-03 
1.587500e-01 3.295559e-03 
1.588500e-01 3.295230e-03 
1.589500e-01 3.294901e-03 
1.590500e-01 3.294572e-03 
1.591500e-01 3.294243e-03 
1.592500e-01 3.293914e-03 
1.593500e-01 3.293585e-03 
1.594500e-01 3.293256e-03 
1.595500e-01 3.292927e-03 
1.596500e-01 3.292599e-03 
1.597500e-01 3.292270e-03 
1.598500e-01 3.291941e-03 
1.599500e-01 3.291612e-03 
1.600500e-01 3.291284e-03 
1.601500e-01 3.290955e-03 
1.602500e-01 3.290626e-03 
1.603500e-01 3.290298e-03 
1.604500e-01 3.289969e-03 
1.605500e-01 3.289641e-03 
1.606500e-01 3.289312e-03 
1.607500e-01 3.288984e-03 
1.608500e-01 3.288655e-03 
1.609500e-01 3.288327e-03 
1.610500e-01 3.287998e-03 
1.611500e-01 3.287670e-03 
1.612500e-01 3.287342e-03 
1.613500e-01 3.287014e-03 
1.614500e-01 3.286685e-03 
1.615500e-01 3.286357e-03 
1.616500e-01 3.286029e-03 
1.617500e-01 3.285701e-03 
1.618500e-01 3.285373e-03 
1.619500e-01 3.285045e-03 
1.620500e-01 3.284717e-03 
1.621500e-01 3.284389e-03 
1.622500e-01 3.284061e-03 
1.623500e-01 3.283733e-03 
1.624500e-01 3.283405e-03 
1.625500e-01 3.283077e-03 
1.626500e-01 3.282749e-03 
1.627500e-01 3.282421e-03 
1.628500e-01 3.282093e-03 
1.629500e-01 3.281766e-03 
1.630500e-01 3.281438e-03 
1.631500e-01 3.281110e-03 
1.632500e-01 3.280783e-03 
1.633500e-01 3.280455e-03 
1.634500e-01 3.280127e-03 
1.635500e-01 3.279800e-03 
1.636500e-01 3.279472e-03 
1.637500e-01 3.279145e-03 
1.638500e-01 3.278817e-03 
1.639500e-01 3.278490e-03 
1.640500e-01 3.278163e-03 
1.641500e-01 3.277835e-03 
1.642500e-01 3.277508e-03 
1.643500e-01 3.277181e-03 
1.644500e-01 3.276853e-03 
1.645500e-01 3.276526e-03 
1.646500e-01 3.276199e-03 
1.647500e-01 3.275872e-03 
1.648500e-01 3.275545e-03 
1.649500e-01 3.275217e-03 
1.650500e-01 3.274890e-03 
1.651500e-01 3.274563e-03 
1.652500e-01 3.274236e-03 
1.653500e-01 3.273909e-03 
1.654500e-01 3.273582e-03 
1.655500e-01 3.273256e-03 
1.656500e-01 3.272929e-03 
1.657500e-01 3.272602e-03 
1.658500e-01 3.272275e-03 
1.659500e-01 3.271948e-03 
1.660500e-01 3.271621e-03 
1.661500e-01 3.271295e-03 
1.662500e-01 3.270968e-03 
1.663500e-01 3.270641e-03 
1.664500e-01 3.270315e-03 
1.665500e-01 3.269988e-03 
1.666500e-01 3.269662e-03 
1.667500e-01 3.269335e-03 
1.668500e-01 3.269009e-03 
1.669500e-01 3.268682e-03 
1.670500e-01 3.268356e-03 
1.671500e-01 3.268030e-03 
1.672500e-01 3.267703e-03 
1.673500e-01 3.267377e-03 
1.674500e-01 3.267051e-03 
1.675500e-01 3.266724e-03 
1.676500e-01 3.266398e-03 
1.677500e-01 3.266072e-03 
1.678500e-01 3.265746e-03 
1.679500e-01 3.265420e-03 
1.680500e-01 3.265094e-03 
1.681500e-01 3.264767e-03 
1.682500e-01 3.264441e-03 
1.683500e-01 3.264115e-03 
1.684500e-01 3.263790e-03 
1.685500e-01 3.263464e-03 
1.686500e-01 3.263138e-03 
1.687500e-01 3.262812e-03 
1.688500e-01 3.262486e-03 
1.689500e-01 3.262160e-03 
1.690500e-01 3.261834e-03 
1.691500e-01 3.261509e-03 
1.692500e-01 3.261183e-03 
1.693500e-01 3.260857e-03 
1.694500e-01 3.260532e-03 
1.695500e-01 3.260206e-03 
1.696500e-01 3.259881e-03 
1.697500e-01 3.259555e-03 
1.698500e-01 3.259230e-03 
1.699500e-01 3.258904e-03 
1.700500e-01 3.258579e-03 
1.701500e-01 3.258253e-03 
1.702500e-01 3.257928e-03 
1.703500e-01 3.257602e-03 
1.704500e-01 3.257277e-03 
1.705500e-01 3.256952e-03 
1.706500e-01 3.256627e-03 
1.707500e-01 3.256301e-03 
1.708500e-01 3.255976e-03 
1.709500e-01 3.255651e-03 
1.710500e-01 3.255326e-03 
1.711500e-01 3.255001e-03 
1.712500e-01 3.254676e-03 
1.713500e-01 3.254351e-03 
1.714500e-01 3.254026e-03 
1.715500e-01 3.253701e-03 
1.716500e-01 3.253376e-03 
1.717500e-01 3.253051e-03 
1.718500e-01 3.252726e-03 
1.719500e-01 3.252402e-03 
1.720500e-01 3.252077e-03 
1.721500e-01 3.251752e-03 
1.722500e-01 3.251427e-03 
1.723500e-01 3.251103e-03 
1.724500e-01 3.250778e-03 
1.725500e-01 3.250453e-03 
1.726500e-01 3.250129e-03 
1.727500e-01 3.249804e-03 
1.728500e-01 3.249480e-03 
1.729500e-01 3.249155e-03 
1.730500e-01 3.248831e-03 
1.731500e-01 3.248506e-03 
1.732500e-01 3.248182e-03 
1.733500e-01 3.247857e-03 
1.734500e-01 3.247533e-03 
1.735500e-01 3.247209e-03 
1.736500e-01 3.246885e-03 
1.737500e-01 3.246560e-03 
1.738500e-01 3.246236e-03 
1.739500e-01 3.245912e-03 
1.740500e-01 3.245588e-03 
1.741500e-01 3.245264e-03 
1.742500e-01 3.244940e-03 
1.743500e-01 3.244616e-03 
1.744500e-01 3.244292e-03 
1.745500e-01 3.243968e-03 
1.746500e-01 3.243644e-03 
1.747500e-01 3.243320e-03 
1.748500e-01 3.242996e-03 
1.749500e-01 3.242672e-03 
1.750500e-01 3.242348e-03 
1.751500e-01 3.242025e-03 
1.752500e-01 3.241701e-03 
1.753500e-01 3.241377e-03 
1.754500e-01 3.241053e-03 
1.755500e-01 3.240730e-03 
1.756500e-01 3.240406e-03 
1.757500e-01 3.240083e-03 
1.758500e-01 3.239759e-03 
1.759500e-01 3.239435e-03 
1.760500e-01 3.239112e-03 
1.761500e-01 3.238789e-03 
1.762500e-01 3.238465e-03 
1.763500e-01 3.238142e-03 
1.764500e-01 3.237818e-03 
1.765500e-01 3.237495e-03 
1.766500e-01 3.237172e-03 
1.767500e-01 3.236848e-03 
1.768500e-01 3.236525e-03 
1.769500e-01 3.236202e-03 
1.770500e-01 3.235879e-03 
1.771500e-01 3.235556e-03 
1.772500e-01 3.235233e-03 
1.773500e-01 3.234910e-03 
1.774500e-01 3.234587e-03 
1.775500e-01 3.234264e-03 
1.776500e-01 3.233941e-03 
1.777500e-01 3.233618e-03 
1.778500e-01 3.233295e-03 
1.779500e-01 3.232972e-03 
1.780500e-01 3.232649e-03 
1.781500e-01 3.232326e-03 
1.782500e-01 3.232003e-03 
1.783500e-01 3.231681e-03 
1.784500e-01 3.231358e-03 
1.785500e-01 3.231035e-03 
1.786500e-01 3.230713e-03 
1.787500e-01 3.230390e-03 
1.788500e-01 3.230067e-03 
1.789500e-01 3.229745e-03 
1.790500e-01 3.229422e-03 
1.791500e-01 3.229100e-03 
1.792500e-01 3.228777e-03 
1.793500e-01 3.228455e-03 
1.794500e-01 3.228133e-03 
1.795500e-01 3.227810e-03 
1.796500e-01 3.227488e-03 
1.797500e-01 3.227166e-03 
1.798500e-01 3.226843e-03 
1.799500e-01 3.226521e-03 
1.800500e-01 3.226199e-03 
1.801500e-01 3.225877e-03 
1.802500e-01 3.225555e-03 
1.803500e-01 3.225232e-03 
1.804500e-01 3.224910e-03 
1.805500e-01 3.224588e-03 
1.806500e-01 3.224266e-03 
1.807500e-01 3.223944e-03 
1.808500e-01 3.223622e-03 
1.809500e-01 3.223300e-03 
1.810500e-01 3.222979e-03 
1.811500e-01 3.222657e-03 
1.812500e-01 3.222335e-03 
1.813500e-01 3.222013e-03 
1.814500e-01 3.221691e-03 
1.815500e-01 3.221370e-03 
1.816500e-01 3.221048e-03 
1.817500e-01 3.220726e-03 
1.818500e-01 3.220405e-03 
1.819500e-01 3.220083e-03 
1.820500e-01 3.219762e-03 
1.821500e-01 3.219440e-03 
1.822500e-01 3.219118e-03 
1.823500e-01 3.218797e-03 
1.824500e-01 3.218476e-03 
1.825500e-01 3.218154e-03 
1.826500e-01 3.217833e-03 
1.827500e-01 3.217511e-03 
1.828500e-01 3.217190e-03 
1.829500e-01 3.216869e-03 
1.830500e-01 3.216548e-03 
1.831500e-01 3.216226e-03 
1.832500e-01 3.215905e-03 
1.833500e-01 3.215584e-03 
1.834500e-01 3.215263e-03 
1.835500e-01 3.214942e-03 
1.836500e-01 3.214621e-03 
1.837500e-01 3.214300e-03 
1.838500e-01 3.213979e-03 
1.839500e-01 3.213658e-03 
1.840500e-01 3.213337e-03 
1.841500e-01 3.213016e-03 
1.842500e-01 3.212695e-03 
1.843500e-01 3.212374e-03 
1.844500e-01 3.212054e-03 
1.845500e-01 3.211733e-03 
1.846500e-01 3.211412e-03 
1.847500e-01 3.211091e-03 
1.848500e-01 3.210771e-03 
1.849500e-01 3.210450e-03 
1.850500e-01 3.210130e-03 
1.851500e-01 3.209809e-03 
1.852500e-01 3.209488e-03 
1.853500e-01 3.209168e-03 
1.854500e-01 3.208848e-03 
1.855500e-01 3.208527e-03 
1.856500e-01 3.208207e-03 
1.857500e-01 3.207886e-03 
1.858500e-01 3.207566e-03 
1.859500e-01 3.207246e-03 
1.860500e-01 3.206925e-03 
1.861500e-01 3.206605e-03 
1.862500e-01 3.206285e-03 
1.863500e-01 3.205965e-03 
1.864500e-01 3.205645e-03 
1.865500e-01 3.205324e-03 
1.866500e-01 3.205004e-03 
1.867500e-01 3.204684e-03 
1.868500e-01 3.204364e-03 
1.869500e-01 3.204044e-03 
1.870500e-01 3.203724e-03 
1.871500e-01 3.203404e-03 
1.872500e-01 3.203085e-03 
1.873500e-01 3.202765e-03 
1.874500e-01 3.202445e-03 
1.875500e-01 3.202125e-03 
1.876500e-01 3.201805e-03 
1.877500e-01 3.201486e-03 
1.878500e-01 3.201166e-03 
1.879500e-01 3.200846e-03 
1.880500e-01 3.200527e-03 
1.881500e-01 3.200207e-03 
1.882500e-01 3.199887e-03 
1.883500e-01 3.199568e-03 
1.884500e-01 3.199248e-03 
1.885500e-01 3.198929e-03 
1.886500e-01 3.198609e-03 
1.887500e-01 3.198290e-03 
1.888500e-01 3.197971e-03 
1.889500e-01 3.197651e-03 
1.890500e-01 3.197332e-03 
1.891500e-01 3.197013e-03 
1.892500e-01 3.196693e-03 
1.893500e-01 3.196374e-03 
1.894500e-01 3.196055e-03 
1.895500e-01 3.195736e-03 
1.896500e-01 3.195417e-03 
1.897500e-01 3.195098e-03 
1.898500e-01 3.194779e-03 
1.899500e-01 3.194460e-03 
1.900500e-01 3.194141e-03 
1.901500e-01 3.193822e-03 
1.902500e-01 3.193503e-03 
1.903500e-01 3.193184e-03 
1.904500e-01 3.192865e-03 
1.905500e-01 3.192546e-03 
1.906500e-01 3.192227e-03 
1.907500e-01 3.191908e-03 
1.908500e-01 3.191590e-03 
1.909500e-01 3.191271e-03 
1.910500e-01 3.190952e-03 
1.911500e-01 3.190634e-03 
1.912500e-01 3.190315e-03 
1.913500e-01 3.189996e-03 
1.914500e-01 3.189678e-03 
1.915500e-01 3.189359e-03 
1.916500e-01 3.189041e-03 
1.917500e-01 3.188722e-03 
1.918500e-01 3.188404e-03 
1.919500e-01 3.188086e-03 
1.920500e-01 3.187767e-03 
1.921500e-01 3.187449e-03 
1.922500e-01 3.187131e-03 
1.923500e-01 3.186812e-03 
1.924500e-01 3.186494e-03 
1.925500e-01 3.186176e-03 
1.926500e-01 3.185858e-03 
1.927500e-01 3.185540e-03 
1.928500e-01 3.185222e-03 
1.929500e-01 3.184903e-03 
1.930500e-01 3.184585e-03 
1.931500e-01 3.184267e-03 
1.932500e-01 3.183949e-03 
1.933500e-01 3.183631e-03 
1.934500e-01 3.183314e-03 
1.935500e-01 3.182996e-03 
1.936500e-01 3.182678e-03 
1.937500e-01 3.182360e-03 
1.938500e-01 3.182042e-03 
1.939500e-01 3.181724e-03 
1.940500e-01 3.181407e-03 
1.941500e-01 3.181089e-03 
1.942500e-01 3.180771e-03 
1.943500e-01 3.180454e-03 
1.944500e-01 3.180136e-03 
1.945500e-01 3.179819e-03 
1.946500e-01 3.179501e-03 
1.947500e-01 3.179184e-03 
1.948500e-01 3.178866e-03 
1.949500e-01 3.178549e-03 
1.950500e-01 3.178231e-03 
1.951500e-01 3.177914e-03 
1.952500e-01 3.177596e-03 
1.953500e-01 3.177279e-03 
1.954500e-01 3.176962e-03 
1.955500e-01 3.176645e-03 
1.956500e-01 3.176327e-03 
1.957500e-01 3.176010e-03 
1.958500e-01 3.175693e-03 
1.959500e-01 3.175376e-03 
1.960500e-01 3.175059e-03 
1.961500e-01 3.174742e-03 
1.962500e-01 3.174425e-03 
1.963500e-01 3.174108e-03 
1.964500e-01 3.173791e-03 
1.965500e-01 3.173474e-03 
1.966500e-01 3.173157e-03 
1.967500e-01 3.172840e-03 
1.968500e-01 3.172523e-03 
1.969500e-01 3.172206e-03 
1.970500e-01 3.171890e-03 
1.971500e-01 3.171573e-03 
1.972500e-01 3.171256e-03 
1.973500e-01 3.170940e-03 
1.974500e-01 3.170623e-03 
1.975500e-01 3.170306e-03 
1.976500e-01 3.169990e-03 
1.977500e-01 3.169673e-03 
1.978500e-01 3.169357e-03 
1.979500e-01 3.169040e-03 
1.980500e-01 3.168724e-03 
1.981500e-01 3.168407e-03 
1.982500e-01 3.168091e-03 
1.983500e-01 3.167774e-03 
1.984500e-01 3.167458e-03 
1.985500e-01 3.167142e-03 
1.986500e-01 3.166825e-03 
1.987500e-01 3.166509e-03 
1.988500e-01 3.166193e-03 
1.989500e-01 3.165877e-03 
1.990500e-01 3.165561e-03 
1.991500e-01 3.165245e-03 
1.992500e-01 3.164928e-03 
1.993500e-01 3.164612e-03 
1.994500e-01 3.164296e-03 
1.995500e-01 3.163980e-03 
1.996500e-01 3.163664e-03 
1.997500e-01 3.163349e-03 
1.998500e-01 3.163033e-03 
1.999500e-01 3.162717e-03 
2.000500e-01 3.162401e-03 
2.001500e-01 3.162085e-03 
2.002500e-01 3.161769e-03 
2.003500e-01 3.161454e-03 
2.004500e-01 3.161138e-03 
2.005500e-01 3.160822e-03 
2.006500e-01 3.160507e-03 
2.007500e-01 3.160191e-03 
2.008500e-01 3.159875e-03 
2.009500e-01 3.159560e-03 
2.010500e-01 3.159244e-03 
2.011500e-01 3.158929e-03 
2.012500e-01 3.158613e-03 
2.013500e-01 3.158298e-03 
2.014500e-01 3.157983e-03 
2.015500e-01 3.157667e-03 
2.016500e-01 3.157352e-03 
2.017500e-01 3.157037e-03 
2.018500e-01 3.156721e-03 
2.019500e-01 3.156406e-03 
2.020500e-01 3.156091e-03 
2.021500e-01 3.155776e-03 
2.022500e-01 3.155461e-03 
2.023500e-01 3.155145e-03 
2.024500e-01 3.154830e-03 
2.025500e-01 3.154515e-03 
2.026500e-01 3.154200e-03 
2.027500e-01 3.153885e-03 
2.028500e-01 3.153570e-03 
2.029500e-01 3.153256e-03 
2.030500e-01 3.152941e-03 
2.031500e-01 3.152626e-03 
2.032500e-01 3.152311e-03 
2.033500e-01 3.151996e-03 
2.034500e-01 3.151681e-03 
2.035500e-01 3.151367e-03 
2.036500e-01 3.151052e-03 
2.037500e-01 3.150737e-03 
2.038500e-01 3.150423e-03 
2.039500e-01 3.150108e-03 
2.040500e-01 3.149794e-03 
2.041500e-01 3.149479e-03 
2.042500e-01 3.149164e-03 
2.043500e-01 3.148850e-03 
2.044500e-01 3.148536e-03 
2.045500e-01 3.148221e-03 
2.046500e-01 3.147907e-03 
2.047500e-01 3.147592e-03 
2.048500e-01 3.147278e-03 
2.049500e-01 3.146964e-03 
2.050500e-01 3.146650e-03 
2.051500e-01 3.146335e-03 
2.052500e-01 3.146021e-03 
2.053500e-01 3.145707e-03 
2.054500e-01 3.145393e-03 
2.055500e-01 3.145079e-03 
2.056500e-01 3.144765e-03 
2.057500e-01 3.144451e-03 
2.058500e-01 3.144137e-03 
2.059500e-01 3.143823e-03 
2.060500e-01 3.143509e-03 
2.061500e-01 3.143195e-03 
2.062500e-01 3.142881e-03 
2.063500e-01 3.142567e-03 
2.064500e-01 3.142253e-03 
2.065500e-01 3.141939e-03 
2.066500e-01 3.141626e-03 
2.067500e-01 3.141312e-03 
2.068500e-01 3.140998e-03 
2.069500e-01 3.140685e-03 
2.070500e-01 3.140371e-03 
2.071500e-01 3.140057e-03 
2.072500e-01 3.139744e-03 
2.073500e-01 3.139430e-03 
2.074500e-01 3.139117e-03 
2.075500e-01 3.138803e-03 
2.076500e-01 3.138490e-03 
2.077500e-01 3.138177e-03 
2.078500e-01 3.137863e-03 
2.079500e-01 3.137550e-03 
2.080500e-01 3.137236e-03 
2.081500e-01 3.136923e-03 
2.082500e-01 3.136610e-03 
2.083500e-01 3.136297e-03 
2.084500e-01 3.135984e-03 
2.085500e-01 3.135670e-03 
2.086500e-01 3.135357e-03 
2.087500e-01 3.135044e-03 
2.088500e-01 3.134731e-03 
2.089500e-01 3.134418e-03 
2.090500e-01 3.134105e-03 
2.091500e-01 3.133792e-03 
2.092500e-01 3.133479e-03 
2.093500e-01 3.133166e-03 
2.094500e-01 3.132853e-03 
2.095500e-01 3.132541e-03 
2.096500e-01 3.132228e-03 
2.097500e-01 3.131915e-03 
2.098500e-01 3.131602e-03 
2.099500e-01 3.131289e-03 
2.100500e-01 3.130977e-03 
2.101500e-01 3.130664e-03 
2.102500e-01 3.130351e-03 
2.103500e-01 3.130039e-03 
2.104500e-01 3.129726e-03 
2.105500e-01 3.129414e-03 
2.106500e-01 3.129101e-03 
2.107500e-01 3.128789e-03 
2.108500e-01 3.128476e-03 
2.109500e-01 3.128164e-03 
2.110500e-01 3.127852e-03 
2.111500e-01 3.127539e-03 
2.112500e-01 3.127227e-03 
2.113500e-01 3.126915e-03 
2.114500e-01 3.126602e-03 
2.115500e-01 3.126290e-03 
2.116500e-01 3.125978e-03 
2.117500e-01 3.125666e-03 
2.118500e-01 3.125354e-03 
2.119500e-01 3.125042e-03 
2.120500e-01 3.124730e-03 
2.121500e-01 3.124417e-03 
2.122500e-01 3.124105e-03 
2.123500e-01 3.123794e-03 
2.124500e-01 3.123482e-03 
2.125500e-01 3.123170e-03 
2.126500e-01 3.122858e-03 
2.127500e-01 3.122546e-03 
2.128500e-01 3.122234e-03 
2.129500e-01 3.121922e-03 
2.130500e-01 3.121611e-03 
2.131500e-01 3.121299e-03 
2.132500e-01 3.120987e-03 
2.133500e-01 3.120675e-03 
2.134500e-01 3.120364e-03 
2.135500e-01 3.120052e-03 
2.136500e-01 3.119741e-03 
2.137500e-01 3.119429e-03 
2.138500e-01 3.119118e-03 
2.139500e-01 3.118806e-03 
2.140500e-01 3.118495e-03 
2.141500e-01 3.118183e-03 
2.142500e-01 3.117872e-03 
2.143500e-01 3.117561e-03 
2.144500e-01 3.117249e-03 
2.145500e-01 3.116938e-03 
2.146500e-01 3.116627e-03 
2.147500e-01 3.116315e-03 
2.148500e-01 3.116004e-03 
2.149500e-01 3.115693e-03 
2.150500e-01 3.115382e-03 
2.151500e-01 3.115071e-03 
2.152500e-01 3.114760e-03 
2.153500e-01 3.114449e-03 
2.154500e-01 3.114138e-03 
2.155500e-01 3.113827e-03 
2.156500e-01 3.113516e-03 
2.157500e-01 3.113205e-03 
2.158500e-01 3.112894e-03 
2.159500e-01 3.112583e-03 
2.160500e-01 3.112272e-03 
2.161500e-01 3.111961e-03 
2.162500e-01 3.111651e-03 
2.163500e-01 3.111340e-03 
2.164500e-01 3.111029e-03 
2.165500e-01 3.110719e-03 
2.166500e-01 3.110408e-03 
2.167500e-01 3.110097e-03 
2.168500e-01 3.109787e-03 
2.169500e-01 3.109476e-03 
2.170500e-01 3.109166e-03 
2.171500e-01 3.108855e-03 
2.172500e-01 3.108545e-03 
2.173500e-01 3.108234e-03 
2.174500e-01 3.107924e-03 
2.175500e-01 3.107614e-03 
2.176500e-01 3.107303e-03 
2.177500e-01 3.106993e-03 
2.178500e-01 3.106683e-03 
2.179500e-01 3.106372e-03 
2.180500e-01 3.106062e-03 
2.181500e-01 3.105752e-03 
2.182500e-01 3.105442e-03 
2.183500e-01 3.105132e-03 
2.184500e-01 3.104822e-03 
2.185500e-01 3.104512e-03 
2.186500e-01 3.104202e-03 
2.187500e-01 3.103892e-03 
2.188500e-01 3.103582e-03 
2.189500e-01 3.103272e-03 
2.190500e-01 3.102962e-03 
2.191500e-01 3.102652e-03 
2.192500e-01 3.102342e-03 
2.193500e-01 3.102032e-03 
2.194500e-01 3.101723e-03 
2.195500e-01 3.101413e-03 
2.196500e-01 3.101103e-03 
2.197500e-01 3.100794e-03 
2.198500e-01 3.100484e-03 
2.199500e-01 3.100174e-03 
2.200500e-01 3.099865e-03 
2.201500e-01 3.099555e-03 
2.202500e-01 3.099246e-03 
2.203500e-01 3.098936e-03 
2.204500e-01 3.098627e-03 
2.205500e-01 3.098317e-03 
2.206500e-01 3.098008e-03 
2.207500e-01 3.097698e-03 
2.208500e-01 3.097389e-03 
2.209500e-01 3.097080e-03 
2.210500e-01 3.096771e-03 
2.211500e-01 3.096461e-03 
2.212500e-01 3.096152e-03 
2.213500e-01 3.095843e-03 
2.214500e-01 3.095534e-03 
2.215500e-01 3.095225e-03 
2.216500e-01 3.094916e-03 
2.217500e-01 3.094606e-03 
2.218500e-01 3.094297e-03 
2.219500e-01 3.093988e-03 
2.220500e-01 3.093679e-03 
2.221500e-01 3.093371e-03 
2.222500e-01 3.093062e-03 
2.223500e-01 3.092753e-03 
2.224500e-01 3.092444e-03 
2.225500e-01 3.092135e-03 
2.226500e-01 3.091826e-03 
2.227500e-01 3.091518e-03 
2.228500e-01 3.091209e-03 
2.229500e-01 3.090900e-03 
2.230500e-01 3.090592e-03 
2.231500e-01 3.090283e-03 
2.232500e-01 3.089974e-03 
2.233500e-01 3.089666e-03 
2.234500e-01 3.089357e-03 
2.235500e-01 3.089049e-03 
2.236500e-01 3.088740e-03 
2.237500e-01 3.088432e-03 
2.238500e-01 3.088123e-03 
2.239500e-01 3.087815e-03 
2.240500e-01 3.087507e-03 
2.241500e-01 3.087198e-03 
2.242500e-01 3.086890e-03 
2.243500e-01 3.086582e-03 
2.244500e-01 3.086274e-03 
2.245500e-01 3.085965e-03 
2.246500e-01 3.085657e-03 
2.247500e-01 3.085349e-03 
2.248500e-01 3.085041e-03 
2.249500e-01 3.084733e-03 
2.250500e-01 3.084425e-03 
2.251500e-01 3.084117e-03 
2.252500e-01 3.083809e-03 
2.253500e-01 3.083501e-03 
2.254500e-01 3.083193e-03 
2.255500e-01 3.082885e-03 
2.256500e-01 3.082577e-03 
2.257500e-01 3.082269e-03 
2.258500e-01 3.081962e-03 
2.259500e-01 3.081654e-03 
2.260500e-01 3.081346e-03 
2.261500e-01 3.081038e-03 
2.262500e-01 3.080731e-03 
2.263500e-01 3.080423e-03 
2.264500e-01 3.080116e-03 
2.265500e-01 3.079808e-03 
2.266500e-01 3.079500e-03 
2.267500e-01 3.079193e-03 
2.268500e-01 3.078885e-03 
2.269500e-01 3.078578e-03 
2.270500e-01 3.078271e-03 
2.271500e-01 3.077963e-03 
2.272500e-01 3.077656e-03 
2.273500e-01 3.077348e-03 
2.274500e-01 3.077041e-03 
2.275500e-01 3.076734e-03 
2.276500e-01 3.076427e-03 
2.277500e-01 3.076119e-03 
2.278500e-01 3.075812e-03 
2.279500e-01 3.075505e-03 
2.280500e-01 3.075198e-03 
2.281500e-01 3.074891e-03 
2.282500e-01 3.074584e-03 
2.283500e-01 3.074277e-03 
2.284500e-01 3.073970e-03 
2.285500e-01 3.073663e-03 
2.286500e-01 3.073356e-03 
2.287500e-01 3.073049e-03 
2.288500e-01 3.072742e-03 
2.289500e-01 3.072435e-03 
2.290500e-01 3.072128e-03 
2.291500e-01 3.071822e-03 
2.292500e-01 3.071515e-03 
2.293500e-01 3.071208e-03 
2.294500e-01 3.070902e-03 
2.295500e-01 3.070595e-03 
2.296500e-01 3.070288e-03 
2.297500e-01 3.069982e-03 
2.298500e-01 3.069675e-03 
2.299500e-01 3.069369e-03 
2.300500e-01 3.069062e-03 
2.301500e-01 3.068756e-03 
2.302500e-01 3.068449e-03 
2.303500e-01 3.068143e-03 
2.304500e-01 3.067836e-03 
2.305500e-01 3.067530e-03 
2.306500e-01 3.067224e-03 
2.307500e-01 3.066917e-03 
2.308500e-01 3.066611e-03 
2.309500e-01 3.066305e-03 
2.310500e-01 3.065999e-03 
2.311500e-01 3.065692e-03 
2.312500e-01 3.065386e-03 
2.313500e-01 3.065080e-03 
2.314500e-01 3.064774e-03 
2.315500e-01 3.064468e-03 
2.316500e-01 3.064162e-03 
2.317500e-01 3.063856e-03 
2.318500e-01 3.063550e-03 
2.319500e-01 3.063244e-03 
2.320500e-01 3.062938e-03 
2.321500e-01 3.062632e-03 
2.322500e-01 3.062327e-03 
2.323500e-01 3.062021e-03 
2.324500e-01 3.061715e-03 
2.325500e-01 3.061409e-03 
2.326500e-01 3.061103e-03 
2.327500e-01 3.060798e-03 
2.328500e-01 3.060492e-03 
2.329500e-01 3.060187e-03 
2.330500e-01 3.059881e-03 
2.331500e-01 3.059575e-03 
2.332500e-01 3.059270e-03 
2.333500e-01 3.058964e-03 
2.334500e-01 3.058659e-03 
2.335500e-01 3.058353e-03 
2.336500e-01 3.058048e-03 
2.337500e-01 3.057743e-03 
2.338500e-01 3.057437e-03 
2.339500e-01 3.057132e-03 
2.340500e-01 3.056827e-03 
2.341500e-01 3.056521e-03 
2.342500e-01 3.056216e-03 
2.343500e-01 3.055911e-03 
2.344500e-01 3.055606e-03 
2.345500e-01 3.055301e-03 
2.346500e-01 3.054996e-03 
2.347500e-01 3.054690e-03 
2.348500e-01 3.054385e-03 
2.349500e-01 3.054080e-03 
2.350500e-01 3.053775e-03 
2.351500e-01 3.053470e-03 
2.352500e-01 3.053166e-03 
2.353500e-01 3.052861e-03 
2.354500e-01 3.052556e-03 
2.355500e-01 3.052251e-03 
2.356500e-01 3.051946e-03 
2.357500e-01 3.051641e-03 
2.358500e-01 3.051337e-03 
2.359500e-01 3.051032e-03 
2.360500e-01 3.050727e-03 
2.361500e-01 3.050423e-03 
2.362500e-01 3.050118e-03 
2.363500e-01 3.049813e-03 
2.364500e-01 3.049509e-03 
2.365500e-01 3.049204e-03 
2.366500e-01 3.048900e-03 
2.367500e-01 3.048595e-03 
2.368500e-01 3.048291e-03 
2.369500e-01 3.047987e-03 
2.370500e-01 3.047682e-03 
2.371500e-01 3.047378e-03 
2.372500e-01 3.047074e-03 
2.373500e-01 3.046769e-03 
2.374500e-01 3.046465e-03 
2.375500e-01 3.046161e-03 
2.376500e-01 3.045857e-03 
2.377500e-01 3.045552e-03 
2.378500e-01 3.045248e-03 
2.379500e-01 3.044944e-03 
2.380500e-01 3.044640e-03 
2.381500e-01 3.044336e-03 
2.382500e-01 3.044032e-03 
2.383500e-01 3.043728e-03 
2.384500e-01 3.043424e-03 
2.385500e-01 3.043120e-03 
2.386500e-01 3.042816e-03 
2.387500e-01 3.042512e-03 
2.388500e-01 3.042209e-03 
2.389500e-01 3.041905e-03 
2.390500e-01 3.041601e-03 
2.391500e-01 3.041297e-03 
2.392500e-01 3.040994e-03 
2.393500e-01 3.040690e-03 
2.394500e-01 3.040386e-03 
2.395500e-01 3.040083e-03 
2.396500e-01 3.039779e-03 
2.397500e-01 3.039476e-03 
2.398500e-01 3.039172e-03 
2.399500e-01 3.038869e-03 
2.400500e-01 3.038565e-03 
2.401500e-01 3.038262e-03 
2.402500e-01 3.037958e-03 
2.403500e-01 3.037655e-03 
2.404500e-01 3.037352e-03 
2.405500e-01 3.037048e-03 
2.406500e-01 3.036745e-03 
2.407500e-01 3.036442e-03 
2.408500e-01 3.036139e-03 
2.409500e-01 3.035835e-03 
2.410500e-01 3.035532e-03 
2.411500e-01 3.035229e-03 
2.412500e-01 3.034926e-03 
2.413500e-01 3.034623e-03 
2.414500e-01 3.034320e-03 
2.415500e-01 3.034017e-03 
2.416500e-01 3.033714e-03 
2.417500e-01 3.033411e-03 
2.418500e-01 3.033108e-03 
2.419500e-01 3.032805e-03 
2.420500e-01 3.032502e-03 
2.421500e-01 3.032199e-03 
2.422500e-01 3.031897e-03 
2.423500e-01 3.031594e-03 
2.424500e-01 3.031291e-03 
2.425500e-01 3.030988e-03 
2.426500e-01 3.030686e-03 
2.427500e-01 3.030383e-03 
2.428500e-01 3.030081e-03 
2.429500e-01 3.029778e-03 
2.430500e-01 3.029475e-03 
2.431500e-01 3.029173e-03 
2.432500e-01 3.028870e-03 
2.433500e-01 3.028568e-03 
2.434500e-01 3.028266e-03 
2.435500e-01 3.027963e-03 
2.436500e-01 3.027661e-03 
2.437500e-01 3.027358e-03 
2.438500e-01 3.027056e-03 
2.439500e-01 3.026754e-03 
2.440500e-01 3.026452e-03 
2.441500e-01 3.026149e-03 
2.442500e-01 3.025847e-03 
2.443500e-01 3.025545e-03 
2.444500e-01 3.025243e-03 
2.445500e-01 3.024941e-03 
2.446500e-01 3.024639e-03 
2.447500e-01 3.024337e-03 
2.448500e-01 3.024035e-03 
2.449500e-01 3.023733e-03 
2.450500e-01 3.023431e-03 
2.451500e-01 3.023129e-03 
2.452500e-01 3.022827e-03 
2.453500e-01 3.022525e-03 
2.454500e-01 3.022223e-03 
2.455500e-01 3.021921e-03 
2.456500e-01 3.021620e-03 
2.457500e-01 3.021318e-03 
2.458500e-01 3.021016e-03 
2.459500e-01 3.020715e-03 
2.460500e-01 3.020413e-03 
2.461500e-01 3.020111e-03 
2.462500e-01 3.019810e-03 
2.463500e-01 3.019508e-03 
2.464500e-01 3.019207e-03 
2.465500e-01 3.018905e-03 
2.466500e-01 3.018604e-03 
2.467500e-01 3.018302e-03 
2.468500e-01 3.018001e-03 
2.469500e-01 3.017699e-03 
2.470500e-01 3.017398e-03 
2.471500e-01 3.017097e-03 
2.472500e-01 3.016795e-03 
2.473500e-01 3.016494e-03 
2.474500e-01 3.016193e-03 
2.475500e-01 3.015892e-03 
2.476500e-01 3.015591e-03 
2.477500e-01 3.015289e-03 
2.478500e-01 3.014988e-03 
2.479500e-01 3.014687e-03 
2.480500e-01 3.014386e-03 
2.481500e-01 3.014085e-03 
2.482500e-01 3.013784e-03 
2.483500e-01 3.013483e-03 
2.484500e-01 3.013182e-03 
2.485500e-01 3.012881e-03 
2.486500e-01 3.012581e-03 
2.487500e-01 3.012280e-03 
2.488500e-01 3.011979e-03 
2.489500e-01 3.011678e-03 
2.490500e-01 3.011377e-03 
2.491500e-01 3.011077e-03 
2.492500e-01 3.010776e-03 
2.493500e-01 3.010475e-03 
2.494500e-01 3.010175e-03 
2.495500e-01 3.009874e-03 
2.496500e-01 3.009573e-03 
2.497500e-01 3.009273e-03 
2.498500e-01 3.008972e-03 
2.499500e-01 3.008672e-03 
2.500500e-01 3.008371e-03 
2.501500e-01 3.008071e-03 
2.502500e-01 3.007771e-03 
2.503500e-01 3.007470e-03 
2.504500e-01 3.007170e-03 
2.505500e-01 3.006870e-03 
2.506500e-01 3.006569e-03 
2.507500e-01 3.006269e-03 
2.508500e-01 3.005969e-03 
2.509500e-01 3.005669e-03 
2.510500e-01 3.005369e-03 
2.511500e-01 3.005069e-03 
2.512500e-01 3.004768e-03 
2.513500e-01 3.004468e-03 
2.514500e-01 3.004168e-03 
2.515500e-01 3.003868e-03 
2.516500e-01 3.003568e-03 
2.517500e-01 3.003268e-03 
2.518500e-01 3.002969e-03 
2.519500e-01 3.002669e-03 
2.520500e-01 3.002369e-03 
2.521500e-01 3.002069e-03 
2.522500e-01 3.001769e-03 
2.523500e-01 3.001469e-03 
2.524500e-01 3.001170e-03 
2.525500e-01 3.000870e-03 
2.526500e-01 3.000570e-03 
2.527500e-01 3.000271e-03 
2.528500e-01 2.999971e-03 
2.529500e-01 2.999671e-03 
2.530500e-01 2.999372e-03 
2.531500e-01 2.999072e-03 
2.532500e-01 2.998773e-03 
2.533500e-01 2.998473e-03 
2.534500e-01 2.998174e-03 
2.535500e-01 2.997875e-03 
2.536500e-01 2.997575e-03 
2.537500e-01 2.997276e-03 
2.538500e-01 2.996977e-03 
2.539500e-01 2.996677e-03 
2.540500e-01 2.996378e-03 
2.541500e-01 2.996079e-03 
2.542500e-01 2.995780e-03 
2.543500e-01 2.995481e-03 
2.544500e-01 2.995181e-03 
2.545500e-01 2.994882e-03 
2.546500e-01 2.994583e-03 
2.547500e-01 2.994284e-03 
2.548500e-01 2.993985e-03 
2.549500e-01 2.993686e-03 
2.550500e-01 2.993387e-03 
2.551500e-01 2.993088e-03 
2.552500e-01 2.992789e-03 
2.553500e-01 2.992491e-03 
2.554500e-01 2.992192e-03 
2.555500e-01 2.991893e-03 
2.556500e-01 2.991594e-03 
2.557500e-01 2.991295e-03 
2.558500e-01 2.990997e-03 
2.559500e-01 2.990698e-03 
2.560500e-01 2.990399e-03 
2.561500e-01 2.990101e-03 
2.562500e-01 2.989802e-03 
2.563500e-01 2.989504e-03 
2.564500e-01 2.989205e-03 
2.565500e-01 2.988907e-03 
2.566500e-01 2.988608e-03 
2.567500e-01 2.988310e-03 
2.568500e-01 2.988011e-03 
2.569500e-01 2.987713e-03 
2.570500e-01 2.987415e-03 
2.571500e-01 2.987116e-03 
2.572500e-01 2.986818e-03 
2.573500e-01 2.986520e-03 
2.574500e-01 2.986221e-03 
2.575500e-01 2.985923e-03 
2.576500e-01 2.985625e-03 
2.577500e-01 2.985327e-03 
2.578500e-01 2.985029e-03 
2.579500e-01 2.984731e-03 
2.580500e-01 2.984433e-03 
2.581500e-01 2.984135e-03 
2.582500e-01 2.983837e-03 
2.583500e-01 2.983539e-03 
2.584500e-01 2.983241e-03 
2.585500e-01 2.982943e-03 
2.586500e-01 2.982645e-03 
2.587500e-01 2.982347e-03 
2.588500e-01 2.982049e-03 
2.589500e-01 2.981752e-03 
2.590500e-01 2.981454e-03 
2.591500e-01 2.981156e-03 
2.592500e-01 2.980858e-03 
2.593500e-01 2.980561e-03 
2.594500e-01 2.980263e-03 
2.595500e-01 2.979965e-03 
2.596500e-01 2.979668e-03 
2.597500e-01 2.979370e-03 
2.598500e-01 2.979073e-03 
2.599500e-01 2.978775e-03 
2.600500e-01 2.978478e-03 
2.601500e-01 2.978180e-03 
2.602500e-01 2.977883e-03 
2.603500e-01 2.977586e-03 
2.604500e-01 2.977288e-03 
2.605500e-01 2.976991e-03 
2.606500e-01 2.976694e-03 
2.607500e-01 2.976396e-03 
2.608500e-01 2.976099e-03 
2.609500e-01 2.975802e-03 
2.610500e-01 2.975505e-03 
2.611500e-01 2.975208e-03 
2.612500e-01 2.974911e-03 
2.613500e-01 2.974614e-03 
2.614500e-01 2.974317e-03 
2.615500e-01 2.974020e-03 
2.616500e-01 2.973723e-03 
2.617500e-01 2.973426e-03 
2.618500e-01 2.973129e-03 
2.619500e-01 2.972832e-03 
2.620500e-01 2.972535e-03 
2.621500e-01 2.972238e-03 
2.622500e-01 2.971941e-03 
2.623500e-01 2.971644e-03 
2.624500e-01 2.971348e-03 
2.625500e-01 2.971051e-03 
2.626500e-01 2.970754e-03 
2.627500e-01 2.970458e-03 
2.628500e-01 2.970161e-03 
2.629500e-01 2.969864e-03 
2.630500e-01 2.969568e-03 
2.631500e-01 2.969271e-03 
2.632500e-01 2.968975e-03 
2.633500e-01 2.968678e-03 
2.634500e-01 2.968382e-03 
2.635500e-01 2.968085e-03 
2.636500e-01 2.967789e-03 
2.637500e-01 2.967493e-03 
2.638500e-01 2.967196e-03 
2.639500e-01 2.966900e-03 
2.640500e-01 2.966604e-03 
2.641500e-01 2.966308e-03 
2.642500e-01 2.966011e-03 
2.643500e-01 2.965715e-03 
2.644500e-01 2.965419e-03 
2.645500e-01 2.965123e-03 
2.646500e-01 2.964827e-03 
2.647500e-01 2.964531e-03 
2.648500e-01 2.964235e-03 
2.649500e-01 2.963939e-03 
2.650500e-01 2.963643e-03 
2.651500e-01 2.963347e-03 
2.652500e-01 2.963051e-03 
2.653500e-01 2.962755e-03 
2.654500e-01 2.962459e-03 
2.655500e-01 2.962163e-03 
2.656500e-01 2.961867e-03 
2.657500e-01 2.961572e-03 
2.658500e-01 2.961276e-03 
2.659500e-01 2.960980e-03 
2.660500e-01 2.960684e-03 
2.661500e-01 2.960389e-03 
2.662500e-01 2.960093e-03 
2.663500e-01 2.959798e-03 
2.664500e-01 2.959502e-03 
2.665500e-01 2.959206e-03 
2.666500e-01 2.958911e-03 
2.667500e-01 2.958615e-03 
2.668500e-01 2.958320e-03 
2.669500e-01 2.958025e-03 
2.670500e-01 2.957729e-03 
2.671500e-01 2.957434e-03 
2.672500e-01 2.957138e-03 
2.673500e-01 2.956843e-03 
2.674500e-01 2.956548e-03 
2.675500e-01 2.956253e-03 
2.676500e-01 2.955957e-03 
2.677500e-01 2.955662e-03 
2.678500e-01 2.955367e-03 
2.679500e-01 2.955072e-03 
2.680500e-01 2.954777e-03 
2.681500e-01 2.954482e-03 
2.682500e-01 2.954187e-03 
2.683500e-01 2.953892e-03 
2.684500e-01 2.953597e-03 
2.685500e-01 2.953302e-03 
2.686500e-01 2.953007e-03 
2.687500e-01 2.952712e-03 
2.688500e-01 2.952417e-03 
2.689500e-01 2.952122e-03 
2.690500e-01 2.951828e-03 
2.691500e-01 2.951533e-03 
2.692500e-01 2.951238e-03 
2.693500e-01 2.950943e-03 
2.694500e-01 2.950649e-03 
2.695500e-01 2.950354e-03 
2.696500e-01 2.950059e-03 
2.697500e-01 2.949765e-03 
2.698500e-01 2.949470e-03 
2.699500e-01 2.949176e-03 
2.700500e-01 2.948881e-03 
2.701500e-01 2.948587e-03 
2.702500e-01 2.948292e-03 
2.703500e-01 2.947998e-03 
2.704500e-01 2.947703e-03 
2.705500e-01 2.947409e-03 
2.706500e-01 2.947115e-03 
2.707500e-01 2.946820e-03 
2.708500e-01 2.946526e-03 
2.709500e-01 2.946232e-03 
2.710500e-01 2.945938e-03 
2.711500e-01 2.945643e-03 
2.712500e-01 2.945349e-03 
2.713500e-01 2.945055e-03 
2.714500e-01 2.944761e-03 
2.715500e-01 2.944467e-03 
2.716500e-01 2.944173e-03 
2.717500e-01 2.943879e-03 
2.718500e-01 2.943585e-03 
2.719500e-01 2.943291e-03 
2.720500e-01 2.942997e-03 
2.721500e-01 2.942703e-03 
2.722500e-01 2.942409e-03 
2.723500e-01 2.942116e-03 
2.724500e-01 2.941822e-03 
2.725500e-01 2.941528e-03 
2.726500e-01 2.941234e-03 
2.727500e-01 2.940941e-03 
2.728500e-01 2.940647e-03 
2.729500e-01 2.940353e-03 
2.730500e-01 2.940060e-03 
2.731500e-01 2.939766e-03 
2.732500e-01 2.939472e-03 
2.733500e-01 2.939179e-03 
2.734500e-01 2.938885e-03 
2.735500e-01 2.938592e-03 
2.736500e-01 2.938299e-03 
2.737500e-01 2.938005e-03 
2.738500e-01 2.937712e-03 
2.739500e-01 2.937418e-03 
2.740500e-01 2.937125e-03 
2.741500e-01 2.936832e-03 
2.742500e-01 2.936538e-03 
2.743500e-01 2.936245e-03 
2.744500e-01 2.935952e-03 
2.745500e-01 2.935659e-03 
2.746500e-01 2.935366e-03 
2.747500e-01 2.935073e-03 
2.748500e-01 2.934779e-03 
2.749500e-01 2.934486e-03 
2.750500e-01 2.934193e-03 
2.751500e-01 2.933900e-03 
2.752500e-01 2.933607e-03 
2.753500e-01 2.933314e-03 
2.754500e-01 2.933022e-03 
2.755500e-01 2.932729e-03 
2.756500e-01 2.932436e-03 
2.757500e-01 2.932143e-03 
2.758500e-01 2.931850e-03 
2.759500e-01 2.931557e-03 
2.760500e-01 2.931265e-03 
2.761500e-01 2.930972e-03 
2.762500e-01 2.930679e-03 
2.763500e-01 2.930387e-03 
2.764500e-01 2.930094e-03 
2.765500e-01 2.929801e-03 
2.766500e-01 2.929509e-03 
2.767500e-01 2.929216e-03 
2.768500e-01 2.928924e-03 
2.769500e-01 2.928631e-03 
2.770500e-01 2.928339e-03 
2.771500e-01 2.928046e-03 
2.772500e-01 2.927754e-03 
2.773500e-01 2.927462e-03 
2.774500e-01 2.927169e-03 
2.775500e-01 2.926877e-03 
2.776500e-01 2.926585e-03 
2.777500e-01 2.926292e-03 
2.778500e-01 2.926000e-03 
2.779500e-01 2.925708e-03 
2.780500e-01 2.925416e-03 
2.781500e-01 2.925124e-03 
2.782500e-01 2.924832e-03 
2.783500e-01 2.924540e-03 
2.784500e-01 2.924248e-03 
2.785500e-01 2.923955e-03 
2.786500e-01 2.923664e-03 
2.787500e-01 2.923372e-03 
2.788500e-01 2.923080e-03 
2.789500e-01 2.922788e-03 
2.790500e-01 2.922496e-03 
2.791500e-01 2.922204e-03 
2.792500e-01 2.921912e-03 
2.793500e-01 2.921620e-03 
2.794500e-01 2.921329e-03 
2.795500e-01 2.921037e-03 
2.796500e-01 2.920745e-03 
2.797500e-01 2.920454e-03 
2.798500e-01 2.920162e-03 
2.799500e-01 2.919870e-03 
2.800500e-01 2.919579e-03 
2.801500e-01 2.919287e-03 
2.802500e-01 2.918996e-03 
2.803500e-01 2.918704e-03 
2.804500e-01 2.918413e-03 
2.805500e-01 2.918121e-03 
2.806500e-01 2.917830e-03 
2.807500e-01 2.917538e-03 
2.808500e-01 2.917247e-03 
2.809500e-01 2.916956e-03 
2.810500e-01 2.916665e-03 
2.811500e-01 2.916373e-03 
2.812500e-01 2.916082e-03 
2.813500e-01 2.915791e-03 
2.814500e-01 2.915500e-03 
2.815500e-01 2.915209e-03 
2.816500e-01 2.914917e-03 
2.817500e-01 2.914626e-03 
2.818500e-01 2.914335e-03 
2.819500e-01 2.914044e-03 
2.820500e-01 2.913753e-03 
2.821500e-01 2.913462e-03 
2.822500e-01 2.913171e-03 
2.823500e-01 2.912880e-03 
2.824500e-01 2.912590e-03 
2.825500e-01 2.912299e-03 
2.826500e-01 2.912008e-03 
2.827500e-01 2.911717e-03 
2.828500e-01 2.911426e-03 
2.829500e-01 2.911136e-03 
2.830500e-01 2.910845e-03 
2.831500e-01 2.910554e-03 
2.832500e-01 2.910264e-03 
2.833500e-01 2.909973e-03 
2.834500e-01 2.909682e-03 
2.835500e-01 2.909392e-03 
2.836500e-01 2.909101e-03 
2.837500e-01 2.908811e-03 
2.838500e-01 2.908520e-03 
2.839500e-01 2.908230e-03 
2.840500e-01 2.907939e-03 
2.841500e-01 2.907649e-03 
2.842500e-01 2.907359e-03 
2.843500e-01 2.907068e-03 
2.844500e-01 2.906778e-03 
2.845500e-01 2.906488e-03 
2.846500e-01 2.906197e-03 
2.847500e-01 2.905907e-03 
2.848500e-01 2.905617e-03 
2.849500e-01 2.905327e-03 
2.850500e-01 2.905037e-03 
2.851500e-01 2.904747e-03 
2.852500e-01 2.904457e-03 
2.853500e-01 2.904167e-03 
2.854500e-01 2.903877e-03 
2.855500e-01 2.903587e-03 
2.856500e-01 2.903297e-03 
2.857500e-01 2.903007e-03 
2.858500e-01 2.902717e-03 
2.859500e-01 2.902427e-03 
2.860500e-01 2.902137e-03 
2.861500e-01 2.901847e-03 
2.862500e-01 2.901557e-03 
2.863500e-01 2.901268e-03 
2.864500e-01 2.900978e-03 
2.865500e-01 2.900688e-03 
2.866500e-01 2.900399e-03 
2.867500e-01 2.900109e-03 
2.868500e-01 2.899819e-03 
2.869500e-01 2.899530e-03 
2.870500e-01 2.899240e-03 
2.871500e-01 2.898951e-03 
2.872500e-01 2.898661e-03 
2.873500e-01 2.898372e-03 
2.874500e-01 2.898082e-03 
2.875500e-01 2.897793e-03 
2.876500e-01 2.897504e-03 
2.877500e-01 2.897214e-03 
2.878500e-01 2.896925e-03 
2.879500e-01 2.896636e-03 
2.880500e-01 2.896346e-03 
2.881500e-01 2.896057e-03 
2.882500e-01 2.895768e-03 
2.883500e-01 2.895479e-03 
2.884500e-01 2.895190e-03 
2.885500e-01 2.894901e-03 
2.886500e-01 2.894611e-03 
2.887500e-01 2.894322e-03 
2.888500e-01 2.894033e-03 
2.889500e-01 2.893744e-03 
2.890500e-01 2.893455e-03 
2.891500e-01 2.893166e-03 
2.892500e-01 2.892878e-03 
2.893500e-01 2.892589e-03 
2.894500e-01 2.892300e-03 
2.895500e-01 2.892011e-03 
2.896500e-01 2.891722e-03 
2.897500e-01 2.891433e-03 
2.898500e-01 2.891145e-03 
2.899500e-01 2.890856e-03 
2.900500e-01 2.890567e-03 
2.901500e-01 2.890279e-03 
2.902500e-01 2.889990e-03 
2.903500e-01 2.889701e-03 
2.904500e-01 2.889413e-03 
2.905500e-01 2.889124e-03 
2.906500e-01 2.888836e-03 
2.907500e-01 2.888547e-03 
2.908500e-01 2.888259e-03 
2.909500e-01 2.887970e-03 
2.910500e-01 2.887682e-03 
2.911500e-01 2.887394e-03 
2.912500e-01 2.887105e-03 
2.913500e-01 2.886817e-03 
2.914500e-01 2.886529e-03 
2.915500e-01 2.886241e-03 
2.916500e-01 2.885952e-03 
2.917500e-01 2.885664e-03 
2.918500e-01 2.885376e-03 
2.919500e-01 2.885088e-03 
2.920500e-01 2.884800e-03 
2.921500e-01 2.884512e-03 
2.922500e-01 2.884224e-03 
2.923500e-01 2.883936e-03 
2.924500e-01 2.883648e-03 
2.925500e-01 2.883360e-03 
2.926500e-01 2.883072e-03 
2.927500e-01 2.882784e-03 
2.928500e-01 2.882496e-03 
2.929500e-01 2.882208e-03 
2.930500e-01 2.881920e-03 
2.931500e-01 2.881633e-03 
2.932500e-01 2.881345e-03 
2.933500e-01 2.881057e-03 
2.934500e-01 2.880769e-03 
2.935500e-01 2.880482e-03 
2.936500e-01 2.880194e-03 
2.937500e-01 2.879906e-03 
2.938500e-01 2.879619e-03 
2.939500e-01 2.879331e-03 
2.940500e-01 2.879044e-03 
2.941500e-01 2.878756e-03 
2.942500e-01 2.878469e-03 
2.943500e-01 2.878181e-03 
2.944500e-01 2.877894e-03 
2.945500e-01 2.877607e-03 
2.946500e-01 2.877319e-03 
2.947500e-01 2.877032e-03 
2.948500e-01 2.876745e-03 
2.949500e-01 2.876457e-03 
2.950500e-01 2.876170e-03 
2.951500e-01 2.875883e-03 
2.952500e-01 2.875596e-03 
2.953500e-01 2.875308e-03 
2.954500e-01 2.875021e-03 
2.955500e-01 2.874734e-03 
2.956500e-01 2.874447e-03 
2.957500e-01 2.874160e-03 
2.958500e-01 2.873873e-03 
2.959500e-01 2.873586e-03 
2.960500e-01 2.873299e-03 
2.961500e-01 2.873012e-03 
2.962500e-01 2.872725e-03 
2.963500e-01 2.872438e-03 
2.964500e-01 2.872152e-03 
2.965500e-01 2.871865e-03 
2.966500e-01 2.871578e-03 
2.967500e-01 2.871291e-03 
2.968500e-01 2.871005e-03 
2.969500e-01 2.870718e-03 
2.970500e-01 2.870431e-03 
2.971500e-01 2.870144e-03 
2.972500e-01 2.869858e-03 
2.973500e-01 2.869571e-03 
2.974500e-01 2.869285e-03 
2.975500e-01 2.868998e-03 
2.976500e-01 2.868712e-03 
2.977500e-01 2.868425e-03 
2.978500e-01 2.868139e-03 
2.979500e-01 2.867852e-03 
2.980500e-01 2.867566e-03 
2.981500e-01 2.867280e-03 
2.982500e-01 2.866993e-03 
2.983500e-01 2.866707e-03 
2.984500e-01 2.866421e-03 
2.985500e-01 2.866134e-03 
2.986500e-01 2.865848e-03 
2.987500e-01 2.865562e-03 
2.988500e-01 2.865276e-03 
2.989500e-01 2.864990e-03 
2.990500e-01 2.864704e-03 
2.991500e-01 2.864418e-03 
2.992500e-01 2.864132e-03 
2.993500e-01 2.863846e-03 
2.994500e-01 2.863560e-03 
2.995500e-01 2.863274e-03 
2.996500e-01 2.862988e-03 
2.997500e-01 2.862702e-03 
2.998500e-01 2.862416e-03 
2.999500e-01 2.862130e-03 
3.000500e-01 2.861844e-03 
3.001500e-01 2.861558e-03 
3.002500e-01 2.861273e-03 
3.003500e-01 2.860987e-03 
3.004500e-01 2.860701e-03 
3.005500e-01 2.860416e-03 
3.006500e-01 2.860130e-03 
3.007500e-01 2.859844e-03 
3.008500e-01 2.859559e-03 
3.009500e-01 2.859273e-03 
3.010500e-01 2.858988e-03 
3.011500e-01 2.858702e-03 
3.012500e-01 2.858417e-03 
3.013500e-01 2.858131e-03 
3.014500e-01 2.857846e-03 
3.015500e-01 2.857560e-03 
3.016500e-01 2.857275e-03 
3.017500e-01 2.856990e-03 
3.018500e-01 2.856704e-03 
3.019500e-01 2.856419e-03 
3.020500e-01 2.856134e-03 
3.021500e-01 2.855849e-03 
3.022500e-01 2.855564e-03 
3.023500e-01 2.855278e-03 
3.024500e-01 2.854993e-03 
3.025500e-01 2.854708e-03 
3.026500e-01 2.854423e-03 
3.027500e-01 2.854138e-03 
3.028500e-01 2.853853e-03 
3.029500e-01 2.853568e-03 
3.030500e-01 2.853283e-03 
3.031500e-01 2.852998e-03 
3.032500e-01 2.852713e-03 
3.033500e-01 2.852428e-03 
3.034500e-01 2.852144e-03 
3.035500e-01 2.851859e-03 
3.036500e-01 2.851574e-03 
3.037500e-01 2.851289e-03 
3.038500e-01 2.851004e-03 
3.039500e-01 2.850720e-03 
3.040500e-01 2.850435e-03 
3.041500e-01 2.850150e-03 
3.042500e-01 2.849866e-03 
3.043500e-01 2.849581e-03 
3.044500e-01 2.849297e-03 
3.045500e-01 2.849012e-03 
3.046500e-01 2.848728e-03 
3.047500e-01 2.848443e-03 
3.048500e-01 2.848159e-03 
3.049500e-01 2.847874e-03 
3.050500e-01 2.847590e-03 
3.051500e-01 2.847305e-03 
3.052500e-01 2.847021e-03 
3.053500e-01 2.846737e-03 
3.054500e-01 2.846453e-03 
3.055500e-01 2.846168e-03 
3.056500e-01 2.845884e-03 
3.057500e-01 2.845600e-03 
3.058500e-01 2.845316e-03 
3.059500e-01 2.845032e-03 
3.060500e-01 2.844748e-03 
3.061500e-01 2.844463e-03 
3.062500e-01 2.844179e-03 
3.063500e-01 2.843895e-03 
3.064500e-01 2.843611e-03 
3.065500e-01 2.843327e-03 
3.066500e-01 2.843044e-03 
3.067500e-01 2.842760e-03 
3.068500e-01 2.842476e-03 
3.069500e-01 2.842192e-03 
3.070500e-01 2.841908e-03 
3.071500e-01 2.841624e-03 
3.072500e-01 2.841341e-03 
3.073500e-01 2.841057e-03 
3.074500e-01 2.840773e-03 
3.075500e-01 2.840489e-03 
3.076500e-01 2.840206e-03 
3.077500e-01 2.839922e-03 
3.078500e-01 2.839639e-03 
3.079500e-01 2.839355e-03 
3.080500e-01 2.839071e-03 
3.081500e-01 2.838788e-03 
3.082500e-01 2.838504e-03 
3.083500e-01 2.838221e-03 
3.084500e-01 2.837938e-03 
3.085500e-01 2.837654e-03 
3.086500e-01 2.837371e-03 
3.087500e-01 2.837087e-03 
3.088500e-01 2.836804e-03 
3.089500e-01 2.836521e-03 
3.090500e-01 2.836238e-03 
3.091500e-01 2.835954e-03 
3.092500e-01 2.835671e-03 
3.093500e-01 2.835388e-03 
3.094500e-01 2.835105e-03 
3.095500e-01 2.834822e-03 
3.096500e-01 2.834539e-03 
3.097500e-01 2.834256e-03 
3.098500e-01 2.833973e-03 
3.099500e-01 2.833690e-03 
3.100500e-01 2.833407e-03 
3.101500e-01 2.833124e-03 
3.102500e-01 2.832841e-03 
3.103500e-01 2.832558e-03 
3.104500e-01 2.832275e-03 
3.105500e-01 2.831992e-03 
3.106500e-01 2.831709e-03 
3.107500e-01 2.831427e-03 
3.108500e-01 2.831144e-03 
3.109500e-01 2.830861e-03 
3.110500e-01 2.830578e-03 
3.111500e-01 2.830296e-03 
3.112500e-01 2.830013e-03 
3.113500e-01 2.829731e-03 
3.114500e-01 2.829448e-03 
3.115500e-01 2.829165e-03 
3.116500e-01 2.828883e-03 
3.117500e-01 2.828600e-03 
3.118500e-01 2.828318e-03 
3.119500e-01 2.828036e-03 
3.120500e-01 2.827753e-03 
3.121500e-01 2.827471e-03 
3.122500e-01 2.827188e-03 
3.123500e-01 2.826906e-03 
3.124500e-01 2.826624e-03 
3.125500e-01 2.826342e-03 
3.126500e-01 2.826059e-03 
3.127500e-01 2.825777e-03 
3.128500e-01 2.825495e-03 
3.129500e-01 2.825213e-03 
3.130500e-01 2.824931e-03 
3.131500e-01 2.824649e-03 
3.132500e-01 2.824366e-03 
3.133500e-01 2.824084e-03 
3.134500e-01 2.823802e-03 
3.135500e-01 2.823520e-03 
3.136500e-01 2.823238e-03 
3.137500e-01 2.822957e-03 
3.138500e-01 2.822675e-03 
3.139500e-01 2.822393e-03 
3.140500e-01 2.822111e-03 
3.141500e-01 2.821829e-03 
3.142500e-01 2.821547e-03 
3.143500e-01 2.821266e-03 
3.144500e-01 2.820984e-03 
3.145500e-01 2.820702e-03 
3.146500e-01 2.820420e-03 
3.147500e-01 2.820139e-03 
3.148500e-01 2.819857e-03 
3.149500e-01 2.819576e-03 
3.150500e-01 2.819294e-03 
3.151500e-01 2.819012e-03 
3.152500e-01 2.818731e-03 
3.153500e-01 2.818449e-03 
3.154500e-01 2.818168e-03 
3.155500e-01 2.817887e-03 
3.156500e-01 2.817605e-03 
3.157500e-01 2.817324e-03 
3.158500e-01 2.817042e-03 
3.159500e-01 2.816761e-03 
3.160500e-01 2.816480e-03 
3.161500e-01 2.816199e-03 
3.162500e-01 2.815917e-03 
3.163500e-01 2.815636e-03 
3.164500e-01 2.815355e-03 
3.165500e-01 2.815074e-03 
3.166500e-01 2.814793e-03 
3.167500e-01 2.814512e-03 
3.168500e-01 2.814231e-03 
3.169500e-01 2.813950e-03 
3.170500e-01 2.813669e-03 
3.171500e-01 2.813388e-03 
3.172500e-01 2.813107e-03 
3.173500e-01 2.812826e-03 
3.174500e-01 2.812545e-03 
3.175500e-01 2.812264e-03 
3.176500e-01 2.811983e-03 
3.177500e-01 2.811702e-03 
3.178500e-01 2.811422e-03 
3.179500e-01 2.811141e-03 
3.180500e-01 2.810860e-03 
3.181500e-01 2.810579e-03 
3.182500e-01 2.810299e-03 
3.183500e-01 2.810018e-03 
3.184500e-01 2.809737e-03 
3.185500e-01 2.809457e-03 
3.186500e-01 2.809176e-03 
3.187500e-01 2.808896e-03 
3.188500e-01 2.808615e-03 
3.189500e-01 2.808335e-03 
3.190500e-01 2.808054e-03 
3.191500e-01 2.807774e-03 
3.192500e-01 2.807494e-03 
3.193500e-01 2.807213e-03 
3.194500e-01 2.806933e-03 
3.195500e-01 2.806653e-03 
3.196500e-01 2.806372e-03 
3.197500e-01 2.806092e-03 
3.198500e-01 2.805812e-03 
3.199500e-01 2.805532e-03 
3.200500e-01 2.805251e-03 
3.201500e-01 2.804971e-03 
3.202500e-01 2.804691e-03 
3.203500e-01 2.804411e-03 
3.204500e-01 2.804131e-03 
3.205500e-01 2.803851e-03 
3.206500e-01 2.803571e-03 
3.207500e-01 2.803291e-03 
3.208500e-01 2.803011e-03 
3.209500e-01 2.802731e-03 
3.210500e-01 2.802451e-03 
3.211500e-01 2.802172e-03 
3.212500e-01 2.801892e-03 
3.213500e-01 2.801612e-03 
3.214500e-01 2.801332e-03 
3.215500e-01 2.801052e-03 
3.216500e-01 2.800773e-03 
3.217500e-01 2.800493e-03 
3.218500e-01 2.800213e-03 
3.219500e-01 2.799934e-03 
3.220500e-01 2.799654e-03 
3.221500e-01 2.799375e-03 
3.222500e-01 2.799095e-03 
3.223500e-01 2.798815e-03 
3.224500e-01 2.798536e-03 
3.225500e-01 2.798257e-03 
3.226500e-01 2.797977e-03 
3.227500e-01 2.797698e-03 
3.228500e-01 2.797418e-03 
3.229500e-01 2.797139e-03 
3.230500e-01 2.796860e-03 
3.231500e-01 2.796580e-03 
3.232500e-01 2.796301e-03 
3.233500e-01 2.796022e-03 
3.234500e-01 2.795743e-03 
3.235500e-01 2.795463e-03 
3.236500e-01 2.795184e-03 
3.237500e-01 2.794905e-03 
3.238500e-01 2.794626e-03 
3.239500e-01 2.794347e-03 
3.240500e-01 2.794068e-03 
3.241500e-01 2.793789e-03 
3.242500e-01 2.793510e-03 
3.243500e-01 2.793231e-03 
3.244500e-01 2.792952e-03 
3.245500e-01 2.792673e-03 
3.246500e-01 2.792394e-03 
3.247500e-01 2.792115e-03 
3.248500e-01 2.791837e-03 
3.249500e-01 2.791558e-03 
3.250500e-01 2.791279e-03 
3.251500e-01 2.791000e-03 
3.252500e-01 2.790722e-03 
3.253500e-01 2.790443e-03 
3.254500e-01 2.790164e-03 
3.255500e-01 2.789886e-03 
3.256500e-01 2.789607e-03 
3.257500e-01 2.789329e-03 
3.258500e-01 2.789050e-03 
3.259500e-01 2.788771e-03 
3.260500e-01 2.788493e-03 
3.261500e-01 2.788215e-03 
3.262500e-01 2.787936e-03 
3.263500e-01 2.787658e-03 
3.264500e-01 2.787379e-03 
3.265500e-01 2.787101e-03 
3.266500e-01 2.786823e-03 
3.267500e-01 2.786544e-03 
3.268500e-01 2.786266e-03 
3.269500e-01 2.785988e-03 
3.270500e-01 2.785710e-03 
3.271500e-01 2.785431e-03 
3.272500e-01 2.785153e-03 
3.273500e-01 2.784875e-03 
3.274500e-01 2.784597e-03 
3.275500e-01 2.784319e-03 
3.276500e-01 2.784041e-03 
3.277500e-01 2.783763e-03 
3.278500e-01 2.783485e-03 
3.279500e-01 2.783207e-03 
3.280500e-01 2.782929e-03 
3.281500e-01 2.782651e-03 
3.282500e-01 2.782373e-03 
3.283500e-01 2.782095e-03 
3.284500e-01 2.781818e-03 
3.285500e-01 2.781540e-03 
3.286500e-01 2.781262e-03 
3.287500e-01 2.780984e-03 
3.288500e-01 2.780707e-03 
3.289500e-01 2.780429e-03 
3.290500e-01 2.780151e-03 
3.291500e-01 2.779874e-03 
3.292500e-01 2.779596e-03 
3.293500e-01 2.779319e-03 
3.294500e-01 2.779041e-03 
3.295500e-01 2.778763e-03 
3.296500e-01 2.778486e-03 
3.297500e-01 2.778209e-03 
3.298500e-01 2.777931e-03 
3.299500e-01 2.777654e-03 
3.300500e-01 2.777376e-03 
3.301500e-01 2.777099e-03 
3.302500e-01 2.776822e-03 
3.303500e-01 2.776544e-03 
3.304500e-01 2.776267e-03 
3.305500e-01 2.775990e-03 
3.306500e-01 2.775713e-03 
3.307500e-01 2.775435e-03 
3.308500e-01 2.775158e-03 
3.309500e-01 2.774881e-03 
3.310500e-01 2.774604e-03 
3.311500e-01 2.774327e-03 
3.312500e-01 2.774050e-03 
3.313500e-01 2.773773e-03 
3.314500e-01 2.773496e-03 
3.315500e-01 2.773219e-03 
3.316500e-01 2.772942e-03 
3.317500e-01 2.772665e-03 
3.318500e-01 2.772388e-03 
3.319500e-01 2.772111e-03 
3.320500e-01 2.771835e-03 
3.321500e-01 2.771558e-03 
3.322500e-01 2.771281e-03 
3.323500e-01 2.771004e-03 
3.324500e-01 2.770727e-03 
3.325500e-01 2.770451e-03 
3.326500e-01 2.770174e-03 
3.327500e-01 2.769898e-03 
3.328500e-01 2.769621e-03 
3.329500e-01 2.769344e-03 
3.330500e-01 2.769068e-03 
3.331500e-01 2.768791e-03 
3.332500e-01 2.768515e-03 
3.333500e-01 2.768238e-03 
3.334500e-01 2.767962e-03 
3.335500e-01 2.767685e-03 
3.336500e-01 2.767409e-03 
3.337500e-01 2.767133e-03 
3.338500e-01 2.766856e-03 
3.339500e-01 2.766580e-03 
3.340500e-01 2.766304e-03 
3.341500e-01 2.766028e-03 
3.342500e-01 2.765751e-03 
3.343500e-01 2.765475e-03 
3.344500e-01 2.765199e-03 
3.345500e-01 2.764923e-03 
3.346500e-01 2.764647e-03 
3.347500e-01 2.764371e-03 
3.348500e-01 2.764095e-03 
3.349500e-01 2.763819e-03 
3.350500e-01 2.763543e-03 
3.351500e-01 2.763267e-03 
3.352500e-01 2.762991e-03 
3.353500e-01 2.762715e-03 
3.354500e-01 2.762439e-03 
3.355500e-01 2.762163e-03 
3.356500e-01 2.761887e-03 
3.357500e-01 2.761611e-03 
3.358500e-01 2.761336e-03 
3.359500e-01 2.761060e-03 
3.360500e-01 2.760784e-03 
3.361500e-01 2.760508e-03 
3.362500e-01 2.760233e-03 
3.363500e-01 2.759957e-03 
3.364500e-01 2.759682e-03 
3.365500e-01 2.759406e-03 
3.366500e-01 2.759130e-03 
3.367500e-01 2.758855e-03 
3.368500e-01 2.758579e-03 
3.369500e-01 2.758304e-03 
3.370500e-01 2.758028e-03 
3.371500e-01 2.757753e-03 
3.372500e-01 2.757478e-03 
3.373500e-01 2.757202e-03 
3.374500e-01 2.756927e-03 
3.375500e-01 2.756652e-03 
3.376500e-01 2.756376e-03 
3.377500e-01 2.756101e-03 
3.378500e-01 2.755826e-03 
3.379500e-01 2.755551e-03 
3.380500e-01 2.755275e-03 
3.381500e-01 2.755000e-03 
3.382500e-01 2.754725e-03 
3.383500e-01 2.754450e-03 
3.384500e-01 2.754175e-03 
3.385500e-01 2.753900e-03 
3.386500e-01 2.753625e-03 
3.387500e-01 2.753350e-03 
3.388500e-01 2.753075e-03 
3.389500e-01 2.752800e-03 
3.390500e-01 2.752525e-03 
3.391500e-01 2.752250e-03 
3.392500e-01 2.751976e-03 
3.393500e-01 2.751701e-03 
3.394500e-01 2.751426e-03 
3.395500e-01 2.751151e-03 
3.396500e-01 2.750877e-03 
3.397500e-01 2.750602e-03 
3.398500e-01 2.750327e-03 
3.399500e-01 2.750053e-03 
3.400500e-01 2.749778e-03 
3.401500e-01 2.749503e-03 
3.402500e-01 2.749229e-03 
3.403500e-01 2.748954e-03 
3.404500e-01 2.748680e-03 
3.405500e-01 2.748405e-03 
3.406500e-01 2.748131e-03 
3.407500e-01 2.747856e-03 
3.408500e-01 2.747582e-03 
3.409500e-01 2.747308e-03 
3.410500e-01 2.747033e-03 
3.411500e-01 2.746759e-03 
3.412500e-01 2.746485e-03 
3.413500e-01 2.746210e-03 
3.414500e-01 2.745936e-03 
3.415500e-01 2.745662e-03 
3.416500e-01 2.745388e-03 
3.417500e-01 2.745114e-03 
3.418500e-01 2.744839e-03 
3.419500e-01 2.744565e-03 
3.420500e-01 2.744291e-03 
3.421500e-01 2.744017e-03 
3.422500e-01 2.743743e-03 
3.423500e-01 2.743469e-03 
3.424500e-01 2.743195e-03 
3.425500e-01 2.742921e-03 
3.426500e-01 2.742647e-03 
3.427500e-01 2.742374e-03 
3.428500e-01 2.742100e-03 
3.429500e-01 2.741826e-03 
3.430500e-01 2.741552e-03 
3.431500e-01 2.741278e-03 
3.432500e-01 2.741005e-03 
3.433500e-01 2.740731e-03 
3.434500e-01 2.740457e-03 
3.435500e-01 2.740183e-03 
3.436500e-01 2.739910e-03 
3.437500e-01 2.739636e-03 
3.438500e-01 2.739363e-03 
3.439500e-01 2.739089e-03 
3.440500e-01 2.738816e-03 
3.441500e-01 2.738542e-03 
3.442500e-01 2.738269e-03 
3.443500e-01 2.737995e-03 
3.444500e-01 2.737722e-03 
3.445500e-01 2.737448e-03 
3.446500e-01 2.737175e-03 
3.447500e-01 2.736902e-03 
3.448500e-01 2.736628e-03 
3.449500e-01 2.736355e-03 
3.450500e-01 2.736082e-03 
3.451500e-01 2.735809e-03 
3.452500e-01 2.735535e-03 
3.453500e-01 2.735262e-03 
3.454500e-01 2.734989e-03 
3.455500e-01 2.734716e-03 
3.456500e-01 2.734443e-03 
3.457500e-01 2.734170e-03 
3.458500e-01 2.733897e-03 
3.459500e-01 2.733624e-03 
3.460500e-01 2.733351e-03 
3.461500e-01 2.733078e-03 
3.462500e-01 2.732805e-03 
3.463500e-01 2.732532e-03 
3.464500e-01 2.732259e-03 
3.465500e-01 2.731986e-03 
3.466500e-01 2.731713e-03 
3.467500e-01 2.731441e-03 
3.468500e-01 2.731168e-03 
3.469500e-01 2.730895e-03 
3.470500e-01 2.730622e-03 
3.471500e-01 2.730350e-03 
3.472500e-01 2.730077e-03 
3.473500e-01 2.729805e-03 
3.474500e-01 2.729532e-03 
3.475500e-01 2.729259e-03 
3.476500e-01 2.728987e-03 
3.477500e-01 2.728714e-03 
3.478500e-01 2.728442e-03 
3.479500e-01 2.728169e-03 
3.480500e-01 2.727897e-03 
3.481500e-01 2.727625e-03 
3.482500e-01 2.727352e-03 
3.483500e-01 2.727080e-03 
3.484500e-01 2.726807e-03 
3.485500e-01 2.726535e-03 
3.486500e-01 2.726263e-03 
3.487500e-01 2.725991e-03 
3.488500e-01 2.725718e-03 
3.489500e-01 2.725446e-03 
3.490500e-01 2.725174e-03 
3.491500e-01 2.724902e-03 
3.492500e-01 2.724630e-03 
3.493500e-01 2.724358e-03 
3.494500e-01 2.724086e-03 
3.495500e-01 2.723814e-03 
3.496500e-01 2.723542e-03 
3.497500e-01 2.723270e-03 
3.498500e-01 2.722998e-03 
3.499500e-01 2.722726e-03 
3.500500e-01 2.722454e-03 
3.501500e-01 2.722182e-03 
3.502500e-01 2.721910e-03 
3.503500e-01 2.721638e-03 
3.504500e-01 2.721367e-03 
3.505500e-01 2.721095e-03 
3.506500e-01 2.720823e-03 
3.507500e-01 2.720551e-03 
3.508500e-01 2.720280e-03 
3.509500e-01 2.720008e-03 
3.510500e-01 2.719736e-03 
3.511500e-01 2.719465e-03 
3.512500e-01 2.719193e-03 
3.513500e-01 2.718922e-03 
3.514500e-01 2.718650e-03 
3.515500e-01 2.718379e-03 
3.516500e-01 2.718107e-03 
3.517500e-01 2.717836e-03 
3.518500e-01 2.717564e-03 
3.519500e-01 2.717293e-03 
3.520500e-01 2.717022e-03 
3.521500e-01 2.716750e-03 
3.522500e-01 2.716479e-03 
3.523500e-01 2.716208e-03 
3.524500e-01 2.715937e-03 
3.525500e-01 2.715665e-03 
3.526500e-01 2.715394e-03 
3.527500e-01 2.715123e-03 
3.528500e-01 2.714852e-03 
3.529500e-01 2.714581e-03 
3.530500e-01 2.714310e-03 
3.531500e-01 2.714039e-03 
3.532500e-01 2.713768e-03 
3.533500e-01 2.713497e-03 
3.534500e-01 2.713226e-03 
3.535500e-01 2.712955e-03 
3.536500e-01 2.712684e-03 
3.537500e-01 2.712413e-03 
3.538500e-01 2.712142e-03 
3.539500e-01 2.711871e-03 
3.540500e-01 2.711600e-03 
3.541500e-01 2.711330e-03 
3.542500e-01 2.711059e-03 
3.543500e-01 2.710788e-03 
3.544500e-01 2.710517e-03 
3.545500e-01 2.710247e-03 
3.546500e-01 2.709976e-03 
3.547500e-01 2.709705e-03 
3.548500e-01 2.709435e-03 
3.549500e-01 2.709164e-03 
3.550500e-01 2.708894e-03 
3.551500e-01 2.708623e-03 
3.552500e-01 2.708353e-03 
3.553500e-01 2.708082e-03 
3.554500e-01 2.707812e-03 
3.555500e-01 2.707541e-03 
3.556500e-01 2.707271e-03 
3.557500e-01 2.707001e-03 
3.558500e-01 2.706730e-03 
3.559500e-01 2.706460e-03 
3.560500e-01 2.706190e-03 
3.561500e-01 2.705920e-03 
3.562500e-01 2.705649e-03 
3.563500e-01 2.705379e-03 
3.564500e-01 2.705109e-03 
3.565500e-01 2.704839e-03 
3.566500e-01 2.704569e-03 
3.567500e-01 2.704299e-03 
3.568500e-01 2.704029e-03 
3.569500e-01 2.703759e-03 
3.570500e-01 2.703489e-03 
3.571500e-01 2.703219e-03 
3.572500e-01 2.702949e-03 
3.573500e-01 2.702679e-03 
3.574500e-01 2.702409e-03 
3.575500e-01 2.702139e-03 
3.576500e-01 2.701869e-03 
3.577500e-01 2.701599e-03 
3.578500e-01 2.701330e-03 
3.579500e-01 2.701060e-03 
3.580500e-01 2.700790e-03 
3.581500e-01 2.700521e-03 
3.582500e-01 2.700251e-03 
3.583500e-01 2.699981e-03 
3.584500e-01 2.699712e-03 
3.585500e-01 2.699442e-03 
3.586500e-01 2.699172e-03 
3.587500e-01 2.698903e-03 
3.588500e-01 2.698633e-03 
3.589500e-01 2.698364e-03 
3.590500e-01 2.698094e-03 
3.591500e-01 2.697825e-03 
3.592500e-01 2.697556e-03 
3.593500e-01 2.697286e-03 
3.594500e-01 2.697017e-03 
3.595500e-01 2.696748e-03 
3.596500e-01 2.696478e-03 
3.597500e-01 2.696209e-03 
3.598500e-01 2.695940e-03 
3.599500e-01 2.695671e-03 
3.600500e-01 2.695401e-03 
3.601500e-01 2.695132e-03 
3.602500e-01 2.694863e-03 
3.603500e-01 2.694594e-03 
3.604500e-01 2.694325e-03 
3.605500e-01 2.694056e-03 
3.606500e-01 2.693787e-03 
3.607500e-01 2.693518e-03 
3.608500e-01 2.693249e-03 
3.609500e-01 2.692980e-03 
3.610500e-01 2.692711e-03 
3.611500e-01 2.692442e-03 
3.612500e-01 2.692173e-03 
3.613500e-01 2.691904e-03 
3.614500e-01 2.691636e-03 
3.615500e-01 2.691367e-03 
3.616500e-01 2.691098e-03 
3.617500e-01 2.690829e-03 
3.618500e-01 2.690561e-03 
3.619500e-01 2.690292e-03 
3.620500e-01 2.690023e-03 
3.621500e-01 2.689755e-03 
3.622500e-01 2.689486e-03 
3.623500e-01 2.689217e-03 
3.624500e-01 2.688949e-03 
3.625500e-01 2.688680e-03 
3.626500e-01 2.688412e-03 
3.627500e-01 2.688143e-03 
3.628500e-01 2.687875e-03 
3.629500e-01 2.687607e-03 
3.630500e-01 2.687338e-03 
3.631500e-01 2.687070e-03 
3.632500e-01 2.686801e-03 
3.633500e-01 2.686533e-03 
3.634500e-01 2.686265e-03 
3.635500e-01 2.685997e-03 
3.636500e-01 2.685728e-03 
3.637500e-01 2.685460e-03 
3.638500e-01 2.685192e-03 
3.639500e-01 2.684924e-03 
3.640500e-01 2.684656e-03 
3.641500e-01 2.684388e-03 
3.642500e-01 2.684120e-03 
3.643500e-01 2.683852e-03 
3.644500e-01 2.683584e-03 
3.645500e-01 2.683316e-03 
3.646500e-01 2.683048e-03 
3.647500e-01 2.682780e-03 
3.648500e-01 2.682512e-03 
3.649500e-01 2.682244e-03 
3.650500e-01 2.681976e-03 
3.651500e-01 2.681708e-03 
3.652500e-01 2.681440e-03 
3.653500e-01 2.681173e-03 
3.654500e-01 2.680905e-03 
3.655500e-01 2.680637e-03 
3.656500e-01 2.680369e-03 
3.657500e-01 2.680102e-03 
3.658500e-01 2.679834e-03 
3.659500e-01 2.679567e-03 
3.660500e-01 2.679299e-03 
3.661500e-01 2.679031e-03 
3.662500e-01 2.678764e-03 
3.663500e-01 2.678496e-03 
3.664500e-01 2.678229e-03 
3.665500e-01 2.677961e-03 
3.666500e-01 2.677694e-03 
3.667500e-01 2.677427e-03 
3.668500e-01 2.677159e-03 
3.669500e-01 2.676892e-03 
3.670500e-01 2.676625e-03 
3.671500e-01 2.676357e-03 
3.672500e-01 2.676090e-03 
3.673500e-01 2.675823e-03 
3.674500e-01 2.675556e-03 
3.675500e-01 2.675288e-03 
3.676500e-01 2.675021e-03 
3.677500e-01 2.674754e-03 
3.678500e-01 2.674487e-03 
3.679500e-01 2.674220e-03 
3.680500e-01 2.673953e-03 
3.681500e-01 2.673686e-03 
3.682500e-01 2.673419e-03 
3.683500e-01 2.673152e-03 
3.684500e-01 2.672885e-03 
3.685500e-01 2.672618e-03 
3.686500e-01 2.672351e-03 
3.687500e-01 2.672084e-03 
3.688500e-01 2.671817e-03 
3.689500e-01 2.671551e-03 
3.690500e-01 2.671284e-03 
3.691500e-01 2.671017e-03 
3.692500e-01 2.670750e-03 
3.693500e-01 2.670484e-03 
3.694500e-01 2.670217e-03 
3.695500e-01 2.669950e-03 
3.696500e-01 2.669684e-03 
3.697500e-01 2.669417e-03 
3.698500e-01 2.669151e-03 
3.699500e-01 2.668884e-03 
3.700500e-01 2.668617e-03 
3.701500e-01 2.668351e-03 
3.702500e-01 2.668085e-03 
3.703500e-01 2.667818e-03 
3.704500e-01 2.667552e-03 
3.705500e-01 2.667285e-03 
3.706500e-01 2.667019e-03 
3.707500e-01 2.666753e-03 
3.708500e-01 2.666486e-03 
3.709500e-01 2.666220e-03 
3.710500e-01 2.665954e-03 
3.711500e-01 2.665688e-03 
3.712500e-01 2.665421e-03 
3.713500e-01 2.665155e-03 
3.714500e-01 2.664889e-03 
3.715500e-01 2.664623e-03 
3.716500e-01 2.664357e-03 
3.717500e-01 2.664091e-03 
3.718500e-01 2.663825e-03 
3.719500e-01 2.663559e-03 
3.720500e-01 2.663293e-03 
3.721500e-01 2.663027e-03 
3.722500e-01 2.662761e-03 
3.723500e-01 2.662495e-03 
3.724500e-01 2.662229e-03 
3.725500e-01 2.661963e-03 
3.726500e-01 2.661697e-03 
3.727500e-01 2.661432e-03 
3.728500e-01 2.661166e-03 
3.729500e-01 2.660900e-03 
3.730500e-01 2.660634e-03 
3.731500e-01 2.660369e-03 
3.732500e-01 2.660103e-03 
3.733500e-01 2.659837e-03 
3.734500e-01 2.659572e-03 
3.735500e-01 2.659306e-03 
3.736500e-01 2.659041e-03 
3.737500e-01 2.658775e-03 
3.738500e-01 2.658510e-03 
3.739500e-01 2.658244e-03 
3.740500e-01 2.657979e-03 
3.741500e-01 2.657713e-03 
3.742500e-01 2.657448e-03 
3.743500e-01 2.657183e-03 
3.744500e-01 2.656917e-03 
3.745500e-01 2.656652e-03 
3.746500e-01 2.656387e-03 
3.747500e-01 2.656121e-03 
3.748500e-01 2.655856e-03 
3.749500e-01 2.655591e-03 
3.750500e-01 2.655326e-03 
3.751500e-01 2.655061e-03 
3.752500e-01 2.654795e-03 
3.753500e-01 2.654530e-03 
3.754500e-01 2.654265e-03 
3.755500e-01 2.654000e-03 
3.756500e-01 2.653735e-03 
3.757500e-01 2.653470e-03 
3.758500e-01 2.653205e-03 
3.759500e-01 2.652940e-03 
3.760500e-01 2.652675e-03 
3.761500e-01 2.652410e-03 
3.762500e-01 2.652145e-03 
3.763500e-01 2.651881e-03 
3.764500e-01 2.651616e-03 
3.765500e-01 2.651351e-03 
3.766500e-01 2.651086e-03 
3.767500e-01 2.650822e-03 
3.768500e-01 2.650557e-03 
3.769500e-01 2.650292e-03 
3.770500e-01 2.650027e-03 
3.771500e-01 2.649763e-03 
3.772500e-01 2.649498e-03 
3.773500e-01 2.649234e-03 
3.774500e-01 2.648969e-03 
3.775500e-01 2.648705e-03 
3.776500e-01 2.648440e-03 
3.777500e-01 2.648176e-03 
3.778500e-01 2.647911e-03 
3.779500e-01 2.647647e-03 
3.780500e-01 2.647382e-03 
3.781500e-01 2.647118e-03 
3.782500e-01 2.646854e-03 
3.783500e-01 2.646589e-03 
3.784500e-01 2.646325e-03 
3.785500e-01 2.646061e-03 
3.786500e-01 2.645797e-03 
3.787500e-01 2.645532e-03 
3.788500e-01 2.645268e-03 
3.789500e-01 2.645004e-03 
3.790500e-01 2.644740e-03 
3.791500e-01 2.644476e-03 
3.792500e-01 2.644212e-03 
3.793500e-01 2.643948e-03 
3.794500e-01 2.643684e-03 
3.795500e-01 2.643420e-03 
3.796500e-01 2.643156e-03 
3.797500e-01 2.642892e-03 
3.798500e-01 2.642628e-03 
3.799500e-01 2.642364e-03 
3.800500e-01 2.642100e-03 
3.801500e-01 2.641836e-03 
3.802500e-01 2.641572e-03 
3.803500e-01 2.641309e-03 
3.804500e-01 2.641045e-03 
3.805500e-01 2.640781e-03 
3.806500e-01 2.640517e-03 
3.807500e-01 2.640254e-03 
3.808500e-01 2.639990e-03 
3.809500e-01 2.639726e-03 
3.810500e-01 2.639463e-03 
3.811500e-01 2.639199e-03 
3.812500e-01 2.638936e-03 
3.813500e-01 2.638672e-03 
3.814500e-01 2.638409e-03 
3.815500e-01 2.638145e-03 
3.816500e-01 2.637882e-03 
3.817500e-01 2.637618e-03 
3.818500e-01 2.637355e-03 
3.819500e-01 2.637092e-03 
3.820500e-01 2.636828e-03 
3.821500e-01 2.636565e-03 
3.822500e-01 2.636302e-03 
3.823500e-01 2.636038e-03 
3.824500e-01 2.635775e-03 
3.825500e-01 2.635512e-03 
3.826500e-01 2.635249e-03 
3.827500e-01 2.634986e-03 
3.828500e-01 2.634722e-03 
3.829500e-01 2.634459e-03 
3.830500e-01 2.634196e-03 
3.831500e-01 2.633933e-03 
3.832500e-01 2.633670e-03 
3.833500e-01 2.633407e-03 
3.834500e-01 2.633144e-03 
3.835500e-01 2.632881e-03 
3.836500e-01 2.632618e-03 
3.837500e-01 2.632355e-03 
3.838500e-01 2.632092e-03 
3.839500e-01 2.631830e-03 
3.840500e-01 2.631567e-03 
3.841500e-01 2.631304e-03 
3.842500e-01 2.631041e-03 
3.843500e-01 2.630779e-03 
3.844500e-01 2.630516e-03 
3.845500e-01 2.630253e-03 
3.846500e-01 2.629990e-03 
3.847500e-01 2.629728e-03 
3.848500e-01 2.629465e-03 
3.849500e-01 2.629203e-03 
3.850500e-01 2.628940e-03 
3.851500e-01 2.628678e-03 
3.852500e-01 2.628415e-03 
3.853500e-01 2.628153e-03 
3.854500e-01 2.627890e-03 
3.855500e-01 2.627628e-03 
3.856500e-01 2.627365e-03 
3.857500e-01 2.627103e-03 
3.858500e-01 2.626841e-03 
3.859500e-01 2.626578e-03 
3.860500e-01 2.626316e-03 
3.861500e-01 2.626054e-03 
3.862500e-01 2.625791e-03 
3.863500e-01 2.625529e-03 
3.864500e-01 2.625267e-03 
3.865500e-01 2.625005e-03 
3.866500e-01 2.624743e-03 
3.867500e-01 2.624481e-03 
3.868500e-01 2.624219e-03 
3.869500e-01 2.623957e-03 
3.870500e-01 2.623695e-03 
3.871500e-01 2.623433e-03 
3.872500e-01 2.623171e-03 
3.873500e-01 2.622909e-03 
3.874500e-01 2.622647e-03 
3.875500e-01 2.622385e-03 
3.876500e-01 2.622123e-03 
3.877500e-01 2.621861e-03 
3.878500e-01 2.621599e-03 
3.879500e-01 2.621337e-03 
3.880500e-01 2.621076e-03 
3.881500e-01 2.620814e-03 
3.882500e-01 2.620552e-03 
3.883500e-01 2.620291e-03 
3.884500e-01 2.620029e-03 
3.885500e-01 2.619767e-03 
3.886500e-01 2.619506e-03 
3.887500e-01 2.619244e-03 
3.888500e-01 2.618982e-03 
3.889500e-01 2.618721e-03 
3.890500e-01 2.618459e-03 
3.891500e-01 2.618198e-03 
3.892500e-01 2.617937e-03 
3.893500e-01 2.617675e-03 
3.894500e-01 2.617414e-03 
3.895500e-01 2.617152e-03 
3.896500e-01 2.616891e-03 
3.897500e-01 2.616630e-03 
3.898500e-01 2.616368e-03 
3.899500e-01 2.616107e-03 
3.900500e-01 2.615846e-03 
3.901500e-01 2.615585e-03 
3.902500e-01 2.615323e-03 
3.903500e-01 2.615062e-03 
3.904500e-01 2.614801e-03 
3.905500e-01 2.614540e-03 
3.906500e-01 2.614279e-03 
3.907500e-01 2.614018e-03 
3.908500e-01 2.613757e-03 
3.909500e-01 2.613496e-03 
3.910500e-01 2.613235e-03 
3.911500e-01 2.612974e-03 
3.912500e-01 2.612713e-03 
3.913500e-01 2.612452e-03 
3.914500e-01 2.612191e-03 
3.915500e-01 2.611930e-03 
3.916500e-01 2.611669e-03 
3.917500e-01 2.611409e-03 
3.918500e-01 2.611148e-03 
3.919500e-01 2.610887e-03 
3.920500e-01 2.610626e-03 
3.921500e-01 2.610366e-03 
3.922500e-01 2.610105e-03 
3.923500e-01 2.609844e-03 
3.924500e-01 2.609584e-03 
3.925500e-01 2.609323e-03 
3.926500e-01 2.609063e-03 
3.927500e-01 2.608802e-03 
3.928500e-01 2.608542e-03 
3.929500e-01 2.608281e-03 
3.930500e-01 2.608021e-03 
3.931500e-01 2.607760e-03 
3.932500e-01 2.607500e-03 
3.933500e-01 2.607239e-03 
3.934500e-01 2.606979e-03 
3.935500e-01 2.606719e-03 
3.936500e-01 2.606458e-03 
3.937500e-01 2.606198e-03 
3.938500e-01 2.605938e-03 
3.939500e-01 2.605678e-03 
3.940500e-01 2.605417e-03 
3.941500e-01 2.605157e-03 
3.942500e-01 2.604897e-03 
3.943500e-01 2.604637e-03 
3.944500e-01 2.604377e-03 
3.945500e-01 2.604117e-03 
3.946500e-01 2.603857e-03 
3.947500e-01 2.603597e-03 
3.948500e-01 2.603337e-03 
3.949500e-01 2.603077e-03 
3.950500e-01 2.602817e-03 
3.951500e-01 2.602557e-03 
3.952500e-01 2.602297e-03 
3.953500e-01 2.602037e-03 
3.954500e-01 2.601777e-03 
3.955500e-01 2.601518e-03 
3.956500e-01 2.601258e-03 
3.957500e-01 2.600998e-03 
3.958500e-01 2.600738e-03 
3.959500e-01 2.600479e-03 
3.960500e-01 2.600219e-03 
3.961500e-01 2.599959e-03 
3.962500e-01 2.599700e-03 
3.963500e-01 2.599440e-03 
3.964500e-01 2.599180e-03 
3.965500e-01 2.598921e-03 
3.966500e-01 2.598661e-03 
3.967500e-01 2.598402e-03 
3.968500e-01 2.598142e-03 
3.969500e-01 2.597883e-03 
3.970500e-01 2.597623e-03 
3.971500e-01 2.597364e-03 
3.972500e-01 2.597105e-03 
3.973500e-01 2.596845e-03 
3.974500e-01 2.596586e-03 
3.975500e-01 2.596327e-03 
3.976500e-01 2.596067e-03 
3.977500e-01 2.595808e-03 
3.978500e-01 2.595549e-03 
3.979500e-01 2.595290e-03 
3.980500e-01 2.595031e-03 
3.981500e-01 2.594771e-03 
3.982500e-01 2.594512e-03 
3.983500e-01 2.594253e-03 
3.984500e-01 2.593994e-03 
3.985500e-01 2.593735e-03 
3.986500e-01 2.593476e-03 
3.987500e-01 2.593217e-03 
3.988500e-01 2.592958e-03 
3.989500e-01 2.592699e-03 
3.990500e-01 2.592440e-03 
3.991500e-01 2.592181e-03 
3.992500e-01 2.591923e-03 
3.993500e-01 2.591664e-03 
3.994500e-01 2.591405e-03 
3.995500e-01 2.591146e-03 
3.996500e-01 2.590887e-03 
3.997500e-01 2.590629e-03 
3.998500e-01 2.590370e-03 
3.999500e-01 2.590111e-03 
4.000500e-01 2.589853e-03 
4.001500e-01 2.589594e-03 
4.002500e-01 2.589335e-03 
4.003500e-01 2.589077e-03 
4.004500e-01 2.588818e-03 
4.005500e-01 2.588560e-03 
4.006500e-01 2.588301e-03 
4.007500e-01 2.588043e-03 
4.008500e-01 2.587784e-03 
4.009500e-01 2.587526e-03 
4.010500e-01 2.587268e-03 
4.011500e-01 2.587009e-03 
4.012500e-01 2.586751e-03 
4.013500e-01 2.586493e-03 
4.014500e-01 2.586234e-03 
4.015500e-01 2.585976e-03 
4.016500e-01 2.585718e-03 
4.017500e-01 2.585460e-03 
4.018500e-01 2.585201e-03 
4.019500e-01 2.584943e-03 
4.020500e-01 2.584685e-03 
4.021500e-01 2.584427e-03 
4.022500e-01 2.584169e-03 
4.023500e-01 2.583911e-03 
4.024500e-01 2.583653e-03 
4.025500e-01 2.583395e-03 
4.026500e-01 2.583137e-03 
4.027500e-01 2.582879e-03 
4.028500e-01 2.582621e-03 
4.029500e-01 2.582363e-03 
4.030500e-01 2.582105e-03 
4.031500e-01 2.581847e-03 
4.032500e-01 2.581589e-03 
4.033500e-01 2.581332e-03 
4.034500e-01 2.581074e-03 
4.035500e-01 2.580816e-03 
4.036500e-01 2.580558e-03 
4.037500e-01 2.580301e-03 
4.038500e-01 2.580043e-03 
4.039500e-01 2.579785e-03 
4.040500e-01 2.579528e-03 
4.041500e-01 2.579270e-03 
4.042500e-01 2.579013e-03 
4.043500e-01 2.578755e-03 
4.044500e-01 2.578498e-03 
4.045500e-01 2.578240e-03 
4.046500e-01 2.577983e-03 
4.047500e-01 2.577725e-03 
4.048500e-01 2.577468e-03 
4.049500e-01 2.577210e-03 
4.050500e-01 2.576953e-03 
4.051500e-01 2.576696e-03 
4.052500e-01 2.576438e-03 
4.053500e-01 2.576181e-03 
4.054500e-01 2.575924e-03 
4.055500e-01 2.575667e-03 
4.056500e-01 2.575409e-03 
4.057500e-01 2.575152e-03 
4.058500e-01 2.574895e-03 
4.059500e-01 2.574638e-03 
4.060500e-01 2.574381e-03 
4.061500e-01 2.574124e-03 
4.062500e-01 2.573867e-03 
4.063500e-01 2.573610e-03 
4.064500e-01 2.573353e-03 
4.065500e-01 2.573096e-03 
4.066500e-01 2.572839e-03 
4.067500e-01 2.572582e-03 
4.068500e-01 2.572325e-03 
4.069500e-01 2.572068e-03 
4.070500e-01 2.571811e-03 
4.071500e-01 2.571554e-03 
4.072500e-01 2.571298e-03 
4.073500e-01 2.571041e-03 
4.074500e-01 2.570784e-03 
4.075500e-01 2.570527e-03 
4.076500e-01 2.570271e-03 
4.077500e-01 2.570014e-03 
4.078500e-01 2.569757e-03 
4.079500e-01 2.569501e-03 
4.080500e-01 2.569244e-03 
4.081500e-01 2.568988e-03 
4.082500e-01 2.568731e-03 
4.083500e-01 2.568475e-03 
4.084500e-01 2.568218e-03 
4.085500e-01 2.567962e-03 
4.086500e-01 2.567705e-03 
4.087500e-01 2.567449e-03 
4.088500e-01 2.567192e-03 
4.089500e-01 2.566936e-03 
4.090500e-01 2.566680e-03 
4.091500e-01 2.566423e-03 
4.092500e-01 2.566167e-03 
4.093500e-01 2.565911e-03 
4.094500e-01 2.565655e-03 
4.095500e-01 2.565398e-03 
4.096500e-01 2.565142e-03 
4.097500e-01 2.564886e-03 
4.098500e-01 2.564630e-03 
4.099500e-01 2.564374e-03 
4.100500e-01 2.564118e-03 
4.101500e-01 2.563862e-03 
4.102500e-01 2.563606e-03 
4.103500e-01 2.563350e-03 
4.104500e-01 2.563094e-03 
4.105500e-01 2.562838e-03 
4.106500e-01 2.562582e-03 
4.107500e-01 2.562326e-03 
4.108500e-01 2.562070e-03 
4.109500e-01 2.561814e-03 
4.110500e-01 2.561558e-03 
4.111500e-01 2.561303e-03 
4.112500e-01 2.561047e-03 
4.113500e-01 2.560791e-03 
4.114500e-01 2.560535e-03 
4.115500e-01 2.560280e-03 
4.116500e-01 2.560024e-03 
4.117500e-01 2.559768e-03 
4.118500e-01 2.559513e-03 
4.119500e-01 2.559257e-03 
4.120500e-01 2.559002e-03 
4.121500e-01 2.558746e-03 
4.122500e-01 2.558491e-03 
4.123500e-01 2.558235e-03 
4.124500e-01 2.557980e-03 
4.125500e-01 2.557724e-03 
4.126500e-01 2.557469e-03 
4.127500e-01 2.557213e-03 
4.128500e-01 2.556958e-03 
4.129500e-01 2.556703e-03 
4.130500e-01 2.556447e-03 
4.131500e-01 2.556192e-03 
4.132500e-01 2.555937e-03 
4.133500e-01 2.555682e-03 
4.134500e-01 2.555426e-03 
4.135500e-01 2.555171e-03 
4.136500e-01 2.554916e-03 
4.137500e-01 2.554661e-03 
4.138500e-01 2.554406e-03 
4.139500e-01 2.554151e-03 
4.140500e-01 2.553896e-03 
4.141500e-01 2.553641e-03 
4.142500e-01 2.553386e-03 
4.143500e-01 2.553131e-03 
4.144500e-01 2.552876e-03 
4.145500e-01 2.552621e-03 
4.146500e-01 2.552366e-03 
4.147500e-01 2.552111e-03 
4.148500e-01 2.551856e-03 
4.149500e-01 2.551601e-03 
4.150500e-01 2.551346e-03 
4.151500e-01 2.551092e-03 
4.152500e-01 2.550837e-03 
4.153500e-01 2.550582e-03 
4.154500e-01 2.550327e-03 
4.155500e-01 2.550073e-03 
4.156500e-01 2.549818e-03 
4.157500e-01 2.549563e-03 
4.158500e-01 2.549309e-03 
4.159500e-01 2.549054e-03 
4.160500e-01 2.548800e-03 
4.161500e-01 2.548545e-03 
4.162500e-01 2.548291e-03 
4.163500e-01 2.548036e-03 
4.164500e-01 2.547782e-03 
4.165500e-01 2.547527e-03 
4.166500e-01 2.547273e-03 
4.167500e-01 2.547019e-03 
4.168500e-01 2.546764e-03 
4.169500e-01 2.546510e-03 
4.170500e-01 2.546256e-03 
4.171500e-01 2.546001e-03 
4.172500e-01 2.545747e-03 
4.173500e-01 2.545493e-03 
4.174500e-01 2.545239e-03 
4.175500e-01 2.544984e-03 
4.176500e-01 2.544730e-03 
4.177500e-01 2.544476e-03 
4.178500e-01 2.544222e-03 
4.179500e-01 2.543968e-03 
4.180500e-01 2.543714e-03 
4.181500e-01 2.543460e-03 
4.182500e-01 2.543206e-03 
4.183500e-01 2.542952e-03 
4.184500e-01 2.542698e-03 
4.185500e-01 2.542444e-03 
4.186500e-01 2.542190e-03 
4.187500e-01 2.541936e-03 
4.188500e-01 2.541683e-03 
4.189500e-01 2.541429e-03 
4.190500e-01 2.541175e-03 
4.191500e-01 2.540921e-03 
4.192500e-01 2.540668e-03 
4.193500e-01 2.540414e-03 
4.194500e-01 2.540160e-03 
4.195500e-01 2.539906e-03 
4.196500e-01 2.539653e-03 
4.197500e-01 2.539399e-03 
4.198500e-01 2.539146e-03 
4.199500e-01 2.538892e-03 
4.200500e-01 2.538639e-03 
4.201500e-01 2.538385e-03 
4.202500e-01 2.538132e-03 
4.203500e-01 2.537878e-03 
4.204500e-01 2.537625e-03 
4.205500e-01 2.537371e-03 
4.206500e-01 2.537118e-03 
4.207500e-01 2.536864e-03 
4.208500e-01 2.536611e-03 
4.209500e-01 2.536358e-03 
4.210500e-01 2.536105e-03 
4.211500e-01 2.535851e-03 
4.212500e-01 2.535598e-03 
4.213500e-01 2.535345e-03 
4.214500e-01 2.535092e-03 
4.215500e-01 2.534838e-03 
4.216500e-01 2.534585e-03 
4.217500e-01 2.534332e-03 
4.218500e-01 2.534079e-03 
4.219500e-01 2.533826e-03 
4.220500e-01 2.533573e-03 
4.221500e-01 2.533320e-03 
4.222500e-01 2.533067e-03 
4.223500e-01 2.532814e-03 
4.224500e-01 2.532561e-03 
4.225500e-01 2.532308e-03 
4.226500e-01 2.532056e-03 
4.227500e-01 2.531803e-03 
4.228500e-01 2.531550e-03 
4.229500e-01 2.531297e-03 
4.230500e-01 2.531044e-03 
4.231500e-01 2.530791e-03 
4.232500e-01 2.530539e-03 
4.233500e-01 2.530286e-03 
4.234500e-01 2.530033e-03 
4.235500e-01 2.529781e-03 
4.236500e-01 2.529528e-03 
4.237500e-01 2.529275e-03 
4.238500e-01 2.529023e-03 
4.239500e-01 2.528770e-03 
4.240500e-01 2.528518e-03 
4.241500e-01 2.528265e-03 
4.242500e-01 2.528013e-03 
4.243500e-01 2.527760e-03 
4.244500e-01 2.527508e-03 
4.245500e-01 2.527256e-03 
4.246500e-01 2.527003e-03 
4.247500e-01 2.526751e-03 
4.248500e-01 2.526499e-03 
4.249500e-01 2.526246e-03 
4.250500e-01 2.525994e-03 
4.251500e-01 2.525742e-03 
4.252500e-01 2.525490e-03 
4.253500e-01 2.525237e-03 
4.254500e-01 2.524985e-03 
4.255500e-01 2.524733e-03 
4.256500e-01 2.524481e-03 
4.257500e-01 2.524229e-03 
4.258500e-01 2.523977e-03 
4.259500e-01 2.523725e-03 
4.260500e-01 2.523473e-03 
4.261500e-01 2.523221e-03 
4.262500e-01 2.522969e-03 
4.263500e-01 2.522717e-03 
4.264500e-01 2.522465e-03 
4.265500e-01 2.522213e-03 
4.266500e-01 2.521961e-03 
4.267500e-01 2.521709e-03 
4.268500e-01 2.521458e-03 
4.269500e-01 2.521206e-03 
4.270500e-01 2.520954e-03 
4.271500e-01 2.520702e-03 
4.272500e-01 2.520451e-03 
4.273500e-01 2.520199e-03 
4.274500e-01 2.519947e-03 
4.275500e-01 2.519695e-03 
4.276500e-01 2.519444e-03 
4.277500e-01 2.519192e-03 
4.278500e-01 2.518941e-03 
4.279500e-01 2.518689e-03 
4.280500e-01 2.518438e-03 
4.281500e-01 2.518186e-03 
4.282500e-01 2.517935e-03 
4.283500e-01 2.517683e-03 
4.284500e-01 2.517432e-03 
4.285500e-01 2.517180e-03 
4.286500e-01 2.516929e-03 
4.287500e-01 2.516678e-03 
4.288500e-01 2.516427e-03 
4.289500e-01 2.516175e-03 
4.290500e-01 2.515924e-03 
4.291500e-01 2.515673e-03 
4.292500e-01 2.515422e-03 
4.293500e-01 2.515170e-03 
4.294500e-01 2.514919e-03 
4.295500e-01 2.514668e-03 
4.296500e-01 2.514417e-03 
4.297500e-01 2.514166e-03 
4.298500e-01 2.513915e-03 
4.299500e-01 2.513664e-03 
4.300500e-01 2.513413e-03 
4.301500e-01 2.513162e-03 
4.302500e-01 2.512911e-03 
4.303500e-01 2.512660e-03 
4.304500e-01 2.512409e-03 
4.305500e-01 2.512158e-03 
4.306500e-01 2.511907e-03 
4.307500e-01 2.511656e-03 
4.308500e-01 2.511405e-03 
4.309500e-01 2.511154e-03 
4.310500e-01 2.510904e-03 
4.311500e-01 2.510653e-03 
4.312500e-01 2.510402e-03 
4.313500e-01 2.510152e-03 
4.314500e-01 2.509901e-03 
4.315500e-01 2.509650e-03 
4.316500e-01 2.509400e-03 
4.317500e-01 2.509149e-03 
4.318500e-01 2.508899e-03 
4.319500e-01 2.508648e-03 
4.320500e-01 2.508398e-03 
4.321500e-01 2.508147e-03 
4.322500e-01 2.507897e-03 
4.323500e-01 2.507646e-03 
4.324500e-01 2.507396e-03 
4.325500e-01 2.507145e-03 
4.326500e-01 2.506895e-03 
4.327500e-01 2.506645e-03 
4.328500e-01 2.506394e-03 
4.329500e-01 2.506144e-03 
4.330500e-01 2.505894e-03 
4.331500e-01 2.505643e-03 
4.332500e-01 2.505393e-03 
4.333500e-01 2.505143e-03 
4.334500e-01 2.504893e-03 
4.335500e-01 2.504643e-03 
4.336500e-01 2.504393e-03 
4.337500e-01 2.504142e-03 
4.338500e-01 2.503893e-03 
4.339500e-01 2.503642e-03 
4.340500e-01 2.503393e-03 
4.341500e-01 2.503142e-03 
4.342500e-01 2.502893e-03 
4.343500e-01 2.502642e-03 
4.344500e-01 2.502393e-03 
4.345500e-01 2.502143e-03 
4.346500e-01 2.501893e-03 
4.347500e-01 2.501643e-03 
4.348500e-01 2.501393e-03 
4.349500e-01 2.501143e-03 
4.350500e-01 2.500894e-03 
4.351500e-01 2.500644e-03 
4.352500e-01 2.500394e-03 
4.353500e-01 2.500144e-03 
4.354500e-01 2.499895e-03 
4.355500e-01 2.499645e-03 
4.356500e-01 2.499396e-03 
4.357500e-01 2.499146e-03 
4.358500e-01 2.498897e-03 
4.359500e-01 2.498647e-03 
4.360500e-01 2.498397e-03 
4.361500e-01 2.498148e-03 
4.362500e-01 2.497899e-03 
4.363500e-01 2.497649e-03 
4.364500e-01 2.497400e-03 
4.365500e-01 2.497150e-03 
4.366500e-01 2.496901e-03 
4.367500e-01 2.496651e-03 
4.368500e-01 2.496402e-03 
4.369500e-01 2.496153e-03 
4.370500e-01 2.495904e-03 
4.371500e-01 2.495654e-03 
4.372500e-01 2.495405e-03 
4.373500e-01 2.495156e-03 
4.374500e-01 2.494907e-03 
4.375500e-01 2.494657e-03 
4.376500e-01 2.494409e-03 
4.377500e-01 2.494159e-03 
4.378500e-01 2.493910e-03 
4.379500e-01 2.493661e-03 
4.380500e-01 2.493412e-03 
4.381500e-01 2.493163e-03 
4.382500e-01 2.492914e-03 
4.383500e-01 2.492665e-03 
4.384500e-01 2.492417e-03 
4.385500e-01 2.492167e-03 
4.386500e-01 2.491919e-03 
4.387500e-01 2.491670e-03 
4.388500e-01 2.491421e-03 
4.389500e-01 2.491172e-03 
4.390500e-01 2.490924e-03 
4.391500e-01 2.490675e-03 
4.392500e-01 2.490426e-03 
4.393500e-01 2.490177e-03 
4.394500e-01 2.489929e-03 
4.395500e-01 2.489680e-03 
4.396500e-01 2.489432e-03 
4.397500e-01 2.489183e-03 
